emg0,emg1,emg2,emg3,emg4,emg5,emg6,emg7,label,timestamp
192,141,116,78,10,134,227,250,0,1764980816.2257504
181,144,113,72,3,125,250,250,0,1764980816.225762
170,143,112,71,0,117,251,251,0,1764980816.2257686
165,140,112,68,0,115,243,251,0,1764980816.225774
164,136,115,70,0,116,216,252,0,1764980816.225788
162,132,117,79,0,119,171,252,0,1764980816.2257938
163,129,119,90,1,122,121,253,0,1764980816.2257988
170,128,121,98,7,127,70,252,0,1764980816.2258043
168,126,122,111,16,131,28,241,0,1764980816.2258098
159,124,120,121,28,133,5,221,0,1764980816.2258153
150,122,120,135,42,135,0,196,0,1764980816.2258203
136,120,121,149,56,136,0,168,0,1764980816.2258258
118,117,121,162,66,135,0,139,0,1764980816.2258306
100,117,122,175,75,130,0,119,0,1764980816.2258356
87,119,123,179,81,124,0,107,0,1764980816.2258494
73,122,124,178,87,117,0,100,0,1764980816.2258632
57,125,123,173,91,111,2,97,0,1764980816.246095
40,128,121,165,94,106,7,95,0,1764980816.2461026
30,128,120,162,95,106,15,94,0,1764980816.2461078
26,126,120,164,96,108,25,94,0,1764980816.246113
30,122,119,162,93,113,36,94,0,1764980816.246118
39,119,119,155,88,120,45,95,0,1764980816.246123
52,117,118,147,80,126,51,96,0,1764980816.2461355
68,118,118,135,72,132,56,97,0,1764980816.246141
83,120,117,123,65,138,59,98,0,1764980816.2461457
95,122,116,115,65,140,62,99,0,1764980816.246151
104,123,116,116,73,141,64,100,0,1764980816.2461562
110,121,117,121,87,144,67,101,0,1764980816.2461615
115,119,118,123,108,147,69,102,0,1764980816.2461662
117,117,120,124,131,148,71,103,0,1764980816.2461715
117,115,121,125,152,151,73,104,0,1764980816.2461762
116,116,120,124,172,152,74,104,0,1764980816.2461846
114,118,119,121,196,150,76,105,0,1764980816.2966735
111,121,117,124,215,145,77,106,0,1764980816.2966833
108,122,115,131,230,140,78,106,0,1764980816.296687
107,123,114,141,239,135,79,107,0,1764980816.296696
106,123,115,153,241,132,81,108,0,1764980816.2966993
110,121,116,165,231,128,82,108,0,1764980816.2967024
115,121,118,175,221,127,84,109,0,1764980816.2967055
122,123,120,180,212,125,85,110,0,1764980816.2967086
128,125,120,179,203,122,86,111,0,1764980816.2967117
133,128,121,174,196,117,88,111,0,1764980816.2967203
136,129,121,171,193,115,89,102,0,1764980816.2967236
137,127,121,170,187,112,90,87,0,1764980816.2967265
136,123,122,175,180,110,91,69,0,1764980816.2967296
135,118,125,182,176,111,92,51,0,1764980816.2967324
134,115,127,191,171,112,93,33,0,1764980816.2967355
135,114,128,196,165,110,94,29,0,1764980816.296739
136,117,128,192,162,108,96,33,0,1764980816.3371787
137,122,128,182,162,107,97,40,0,1764980816.3371832
137,127,127,173,161,108,98,48,0,1764980816.3371859
137,128,127,166,161,112,99,54,0,1764980816.337188
136,127,128,165,162,118,100,55,0,1764980816.3371906
133,123,129,172,162,125,101,49,0,1764980816.3371935
131,118,131,179,157,131,82,43,0,1764980816.3371959
129,114,132,183,154,134,87,40,0,1764980816.337198
129,113,132,186,150,134,90,37,0,1764980816.337205
130,114,132,182,143,132,92,39,0,1764980816.3372073
131,117,132,182,132,129,94,46,0,1764980816.33721
131,119,132,180,119,127,116,52,0,1764980816.3372118
130,119,133,181,100,127,112,54,0,1764980816.3372142
129,118,135,179,80,128,111,54,0,1764980816.3372166
127,117,136,176,62,130,110,51,0,1764980816.3372188
125,116,137,168,43,132,110,47,0,1764980816.3372214
124,116,137,162,28,133,110,46,0,1764980816.3574164
125,117,137,155,17,132,111,51,0,1764980816.3574207
126,119,135,149,10,131,111,60,0,1764980816.357423
126,121,133,144,4,131,111,69,0,1764980816.357426
126,121,132,142,1,133,112,76,0,1764980816.3574283
126,121,131,123,1,137,112,79,0,1764980816.3574302
124,119,131,113,1,142,105,80,0,1764980816.3574326
123,117,131,109,0,145,95,79,0,1764980816.3574352
122,118,131,104,5,145,82,84,0,1764980816.3574374
122,120,129,96,22,140,72,92,0,1764980816.3574398
124,123,127,106,49,131,66,104,0,1764980816.3574507
126,127,125,110,81,123,68,115,0,1764980816.357453
126,129,124,109,120,118,72,122,0,1764980816.3574553
126,128,123,110,151,117,75,122,0,1764980816.3574576
126,125,123,110,172,121,75,118,0,1764980816.35746
125,122,124,107,181,126,74,113,0,1764980816.3574622
124,120,124,106,182,129,73,111,0,1764980816.387747
124,120,124,106,179,129,74,114,0,1764980816.387751
125,121,123,106,173,127,79,120,0,1764980816.3877535
126,123,122,110,169,125,87,126,0,1764980816.3877559
126,125,122,118,161,124,94,129,0,1764980816.3877578
126,124,121,122,150,126,95,127,0,1764980816.3877602
125,122,122,126,134,128,92,122,0,1764980816.3877661
124,120,125,127,110,131,90,115,0,1764980816.3877683
123,118,127,129,76,132,87,110,0,1764980816.3877704
124,118,127,128,48,128,84,109,0,1764980816.3877723
124,120,129,126,27,121,87,112,0,1764980816.3877747
125,123,129,126,15,115,93,117,0,1764980816.387777
126,125,127,126,18,108,95,121,0,1764980816.3877795
126,126,126,120,31,103,94,123,0,1764980816.3877823
125,125,126,120,47,102,92,123,0,1764980816.3877847
125,124,126,125,64,101,91,120,0,1764980816.387787
124,122,127,127,77,102,89,117,0,1764980816.4079695
124,121,128,131,88,101,91,116,0,1764980816.407974
124,123,129,140,96,98,95,118,0,1764980816.4079764
125,126,128,146,102,96,100,121,0,1764980816.4079788
127,128,127,147,106,94,104,124,0,1764980816.4079814
128,129,126,147,110,93,106,126,0,1764980816.4079835
129,129,125,148,113,96,106,126,0,1764980816.407986
128,126,125,145,115,102,103,121,0,1764980816.4079883
127,125,126,143,117,107,100,119,0,1764980816.4079905
126,123,127,143,118,111,99,118,0,1764980816.4079928
125,125,126,143,120,111,99,120,0,1764980816.407995
125,128,125,140,121,109,102,125,0,1764980816.4079971
126,130,124,139,121,106,107,130,0,1764980816.4079998
127,130,124,136,121,105,110,132,0,1764980816.4080026
126,130,123,132,122,107,111,131,0,1764980816.4080045
126,127,123,125,122,110,110,127,0,1764980816.4080114
125,124,123,117,121,113,108,122,0,1764980816.4484005
125,122,123,112,121,116,107,121,0,1764980816.448405
126,123,122,108,121,116,108,122,0,1764980816.4484076
127,125,121,106,121,114,113,126,0,1764980816.4484098
128,128,121,105,121,114,118,130,0,1764980816.4484124
130,129,121,107,122,114,122,133,0,1764980816.4484146
129,130,122,107,122,116,122,133,0,1764980816.4484167
128,129,123,108,122,119,122,133,0,1764980816.4484189
126,127,123,108,122,123,120,129,0,1764980816.4484208
125,126,123,109,121,125,119,126,0,1764980816.4484234
124,126,123,113,121,124,119,125,0,1764980816.4484253
125,129,122,120,128,122,122,127,0,1764980816.4484305
127,133,121,124,152,118,127,131,0,1764980816.4484344
128,136,120,123,178,115,131,134,0,1764980816.4484367
129,138,119,124,204,114,134,136,0,1764980816.4484391
129,136,119,124,230,116,135,136,0,1764980816.4484415
128,133,121,118,249,119,135,131,0,1764980816.478706
126,128,123,112,250,123,131,124,0,1764980816.4787111
125,124,125,112,250,127,131,122,0,1764980816.4787135
125,122,125,109,251,127,132,123,0,1764980816.4787157
126,122,123,106,250,126,134,127,0,1764980816.478718
128,123,120,105,250,123,136,132,0,1764980816.4787202
129,123,117,106,250,125,137,135,0,1764980816.4787226
129,124,115,105,250,128,134,133,0,1764980816.4787247
128,123,116,104,250,132,130,129,0,1764980816.4787269
125,122,119,103,250,134,127,123,0,1764980816.478729
123,121,122,107,250,137,123,119,0,1764980816.4787312
122,121,124,113,236,133,123,119,0,1764980816.4787378
123,124,125,121,209,129,123,122,0,1764980816.4787405
125,127,126,131,171,126,123,125,0,1764980816.4787428
126,129,126,140,125,123,123,127,0,1764980816.478745
126,128,125,145,74,124,121,127,0,1764980816.4787478
127,127,127,148,38,127,119,125,0,1764980816.5191398
125,122,129,149,15,130,116,121,0,1764980816.5191445
125,120,131,147,3,130,114,118,0,1764980816.5191472
124,118,131,145,0,129,112,118,0,1764980816.5191498
125,119,131,146,0,124,113,120,0,1764980816.5191522
125,121,129,145,0,118,111,124,0,1764980816.5191548
126,123,127,145,13,111,109,127,0,1764980816.519157
127,125,126,146,48,106,108,130,0,1764980816.5191653
127,125,126,143,89,105,106,128,0,1764980816.5191674
126,123,127,136,129,106,103,125,0,1764980816.51917
126,121,129,132,174,107,101,122,0,1764980816.5191727
126,121,129,127,209,109,101,120,0,1764980816.5191748
125,120,129,122,224,112,101,118,0,1764980816.5191772
125,122,128,119,233,114,105,120,0,1764980816.5191796
126,125,127,119,243,115,111,122,0,1764980816.519182
126,126,125,119,248,117,118,124,0,1764980816.5191846
126,125,123,116,250,120,125,125,0,1764980816.5393739
125,123,122,112,250,121,130,125,0,1764980816.5393777
124,121,121,110,250,124,131,123,0,1764980816.5393803
123,118,120,107,249,125,130,121,0,1764980816.5393825
123,118,120,104,245,124,128,121,0,1764980816.5393848
122,120,119,103,234,123,126,121,0,1764980816.5393872
123,122,119,102,217,122,126,124,0,1764980816.5393894
124,125,119,99,189,119,124,125,0,1764980816.5393918
125,125,120,96,153,120,123,125,0,1764980816.539394
125,125,121,94,115,123,122,123,0,1764980816.5393958
124,123,120,93,76,123,120,120,0,1764980816.5393982
124,121,119,93,43,121,117,119,0,1764980816.5394
124,120,119,95,20,118,115,120,0,1764980816.5394022
124,121,120,99,7,115,115,121,0,1764980816.5394053
125,122,120,104,0,111,113,124,0,1764980816.5394073
126,124,123,109,0,108,111,125,0,1764980816.539413
126,123,125,112,0,110,111,124,0,1764980816.5595508
125,123,126,113,0,114,109,123,0,1764980816.569615
124,121,125,112,0,119,106,122,0,1764980816.569618
124,120,126,109,0,124,105,120,0,1764980816.5696208
123,120,127,104,0,127,106,120,0,1764980816.569623
124,122,127,100,0,126,108,121,0,1764980816.5696254
124,124,127,98,0,125,112,122,0,1764980816.5696278
126,127,126,97,7,121,118,123,0,1764980816.5696316
127,128,124,96,20,119,123,124,0,1764980816.5696607
127,128,122,95,40,120,126,125,0,1764980816.5696633
126,126,120,95,70,124,128,125,0,1764980816.5696654
126,124,120,96,111,129,128,125,0,1764980816.569668
126,124,121,99,153,133,125,125,0,1764980816.5696704
126,124,121,105,191,135,123,124,0,1764980816.569673
126,125,121,112,220,135,122,124,0,1764980816.5696752
127,127,120,120,241,134,122,125,0,1764980816.569682
126,128,118,128,250,133,124,126,0,1764980816.6301847
126,127,117,135,250,134,126,125,0,1764980816.63019
125,125,116,140,250,135,128,125,0,1764980816.630193
124,124,116,143,250,135,128,122,0,1764980816.6301954
125,122,116,144,251,135,129,121,0,1764980816.630198
126,121,117,145,251,134,129,120,0,1764980816.6302004
126,122,118,145,251,130,129,121,0,1764980816.6302028
126,123,117,146,251,128,128,121,0,1764980816.6302052
126,123,115,148,251,129,129,124,0,1764980816.6302073
126,124,114,150,251,131,125,125,0,1764980816.6302102
125,123,112,150,240,135,122,125,0,1764980816.6302123
124,121,111,150,222,141,119,124,0,1764980816.6302147
124,121,111,148,202,145,115,122,0,1764980816.6302173
124,120,112,144,179,146,112,120,0,1764980816.6302192
124,122,114,140,155,146,110,120,0,1764980816.6302218
125,124,117,138,139,143,108,119,0,1764980816.6302242
126,125,121,136,130,138,107,120,0,1764980816.6302264
126,126,124,135,124,135,105,121,0,1764980816.6302288
126,126,127,134,118,133,101,120,0,1764980816.6302311
126,124,130,134,116,132,98,119,0,1764980816.6302333
125,121,132,132,115,132,94,117,0,1764980816.6302407
125,120,133,131,119,133,92,117,0,1764980816.6302433
125,121,134,130,121,132,92,118,0,1764980816.630246
125,121,134,129,124,132,94,120,0,1764980816.6302483
125,121,134,128,133,132,97,122,0,1764980816.6302507
125,122,133,127,140,132,100,124,0,1764980816.630253
125,122,133,127,146,133,102,125,0,1764980816.6302555
125,122,133,125,155,157,104,126,0,1764980816.6302576
126,122,131,125,169,174,105,126,0,1764980816.63026
127,121,130,124,176,179,106,126,0,1764980816.6302624
127,122,129,125,193,178,108,126,0,1764980816.6302645
126,122,128,125,203,173,109,126,0,1764980816.6302671
126,123,127,126,209,143,111,126,0,1764980816.700807
125,123,127,127,205,121,111,125,0,1764980816.700812
124,124,127,127,199,110,112,125,0,1764980816.7008188
124,124,127,126,182,104,111,123,0,1764980816.7008212
123,123,126,124,171,103,110,122,0,1764980816.7008238
123,122,126,122,158,105,109,121,0,1764980816.7008262
123,122,126,122,149,109,109,121,0,1764980816.7008283
124,123,127,123,137,113,110,122,0,1764980816.7008307
125,124,127,125,122,119,112,123,0,1764980816.700833
125,124,127,127,105,125,114,123,0,1764980816.7008355
125,125,126,129,92,129,116,123,0,1764980816.700838
125,123,125,130,82,131,116,122,0,1764980816.7008405
125,123,125,132,79,131,115,122,0,1764980816.7008429
124,123,125,133,82,130,114,123,0,1764980816.7008448
124,122,125,134,88,129,112,123,0,1764980816.7008471
123,123,125,134,97,128,111,123,0,1764980816.7008498
124,124,125,134,110,125,112,124,0,1764980816.7210557
124,125,125,133,127,125,114,124,0,1764980816.7210603
124,125,125,132,145,125,115,124,0,1764980816.7210631
125,125,125,131,160,124,117,124,0,1764980816.7210658
125,125,125,131,166,123,118,124,0,1764980816.7210684
125,123,125,130,163,125,117,125,0,1764980816.7210708
125,121,126,127,150,125,117,124,0,1764980816.721073
124,120,126,126,136,125,117,123,0,1764980816.7210753
125,120,126,125,124,124,118,123,0,1764980816.7210777
125,121,127,124,120,124,118,124,0,1764980816.7210803
125,123,126,124,120,123,119,124,0,1764980816.7210827
126,126,125,124,130,123,119,126,0,1764980816.7210848
126,127,125,125,139,124,118,126,0,1764980816.7210872
127,127,124,126,150,126,117,125,0,1764980816.7210896
126,126,124,125,157,128,117,124,0,1764980816.7210917
126,125,124,124,168,131,117,123,0,1764980816.7210946
126,125,125,124,175,134,118,123,0,1764980816.741275
126,124,125,122,182,135,119,123,0,1764980816.7412791
125,123,124,120,186,136,120,125,0,1764980816.7412815
125,123,124,119,190,136,121,126,0,1764980816.741284
124,124,123,118,188,135,120,126,0,1764980816.741286
124,123,123,118,187,134,120,126,0,1764980816.7412884
124,123,123,118,181,135,119,125,0,1764980816.7412908
125,125,124,120,178,135,119,124,0,1764980816.741293
125,128,126,121,185,135,118,123,0,1764980816.741295
126,129,126,122,196,136,118,124,0,1764980816.7412975
126,130,127,123,204,137,118,124,0,1764980816.7412994
126,130,126,125,211,136,119,124,0,1764980816.7413018
126,128,126,125,207,135,118,125,0,1764980816.741304
125,124,124,124,188,134,118,125,0,1764980816.7413063
124,122,124,124,161,132,118,124,0,1764980816.7413087
124,121,125,123,133,132,118,124,0,1764980816.7413113
124,121,125,122,108,132,118,124,0,1764980816.7715464
124,121,124,121,91,131,119,124,0,1764980816.771551
124,122,124,122,85,131,120,124,0,1764980816.7715538
125,123,124,123,81,131,121,125,0,1764980816.7715561
125,123,125,125,75,131,121,124,0,1764980816.7715588
126,122,125,126,70,131,122,123,0,1764980816.7715657
126,121,126,128,62,131,122,122,0,1764980816.7715695
126,121,127,128,49,131,122,122,0,1764980816.7715719
126,120,127,127,39,129,121,122,0,1764980816.7715745
125,118,127,128,31,127,121,123,0,1764980816.771577
125,117,127,127,26,124,120,125,0,1764980816.7715788
125,117,126,128,22,123,119,126,0,1764980816.7715812
124,117,126,129,17,121,117,127,0,1764980816.7715836
124,118,125,130,12,121,116,126,0,1764980816.7715857
124,119,125,130,8,120,114,124,0,1764980816.771588
124,121,126,129,3,118,113,123,0,1764980816.771591
124,121,126,129,0,117,112,122,0,1764980816.7917774
124,122,126,128,0,116,112,122,0,1764980816.7917814
124,124,127,127,0,114,113,123,0,1764980816.791784
125,124,126,126,0,113,114,124,0,1764980816.7917862
125,125,125,125,0,113,115,126,0,1764980816.7917888
126,126,124,124,3,114,117,126,0,1764980816.7917914
126,126,124,123,9,116,117,126,0,1764980816.7917938
126,125,123,122,19,118,117,125,0,1764980816.7917962
126,125,123,122,34,120,118,125,0,1764980816.791799
126,126,124,124,52,122,120,126,0,1764980816.7918015
127,127,124,126,70,124,120,126,0,1764980816.7918036
127,129,124,126,88,124,122,127,0,1764980816.791806
126,131,125,127,104,124,124,127,0,1764980816.7918084
126,132,124,127,119,124,124,127,0,1764980816.7918105
126,132,124,127,133,124,123,126,0,1764980816.791813
126,132,123,126,151,123,123,125,0,1764980816.7918158
126,132,124,126,168,125,123,125,0,1764980816.8321853
126,131,124,125,183,126,123,125,0,1764980816.8321908
127,132,124,124,198,127,123,124,0,1764980816.8321934
127,131,124,123,210,127,124,125,0,1764980816.8321958
127,130,124,122,216,127,124,125,0,1764980816.8321981
127,130,123,122,223,126,124,125,0,1764980816.8322008
126,129,123,122,229,126,123,124,0,1764980816.832203
125,127,123,122,235,127,121,124,0,1764980816.8322053
125,126,122,121,238,127,119,123,0,1764980816.832208
124,125,122,121,235,127,117,123,0,1764980816.83221
125,124,123,122,227,127,117,123,0,1764980816.8322122
125,124,123,124,215,126,118,125,0,1764980816.8322713
126,125,123,125,196,125,120,126,0,1764980816.8322742
126,125,124,126,171,123,121,127,0,1764980816.8322766
125,124,125,126,148,122,122,126,0,1764980816.832283
125,122,125,133,126,121,122,125,0,1764980816.832286
124,120,125,135,107,119,122,124,0,1764980816.8524494
124,119,125,142,90,118,123,123,0,1764980816.8524532
123,119,125,144,77,117,124,123,0,1764980816.8524556
123,119,124,144,65,116,126,122,0,1764980816.852458
123,120,124,135,53,116,128,122,0,1764980816.8524606
123,121,124,130,35,116,129,123,0,1764980816.8524628
124,121,124,121,25,116,130,123,0,1764980816.8524652
124,121,124,115,15,118,129,122,0,1764980816.8524678
125,121,124,113,12,121,129,122,0,1764980816.8524733
125,122,125,113,16,123,128,123,0,1764980816.8524756
125,122,125,114,30,126,128,123,0,1764980816.852478
125,124,124,116,42,129,128,124,0,1764980816.8524802
126,126,124,118,62,130,129,125,0,1764980816.8524826
126,127,123,120,85,131,129,127,0,1764980816.8524852
126,128,123,123,110,131,129,127,0,1764980816.8524873
126,128,123,124,142,132,128,127,0,1764980816.8524902
125,127,122,124,177,133,126,126,0,1764980816.9029503
124,125,122,123,206,135,124,124,0,1764980816.902955
124,125,122,122,230,136,122,122,0,1764980816.902958
124,123,122,121,246,137,121,121,0,1764980816.9029603
125,123,123,121,249,136,121,121,0,1764980816.902963
125,123,123,122,239,135,121,121,0,1764980816.9029691
126,125,124,123,225,133,122,122,0,1764980816.9029715
126,125,124,125,215,133,123,123,0,1764980816.9029737
125,127,125,127,209,132,123,123,0,1764980816.9029763
125,127,125,127,205,131,122,123,0,1764980816.9029784
124,127,125,127,209,132,122,123,0,1764980816.9029806
124,126,124,125,214,130,122,123,0,1764980816.9029832
124,125,124,124,210,127,122,122,0,1764980816.9029856
124,124,124,121,196,124,121,122,0,1764980816.9029877
124,122,123,120,175,122,121,124,0,1764980816.9029899
125,121,123,120,156,118,120,124,0,1764980816.9029925
125,120,124,121,140,117,120,125,0,1764980816.9231975
126,120,124,122,131,117,120,125,0,1764980816.9232054
126,121,125,123,129,119,120,125,0,1764980816.923208
126,121,125,125,130,121,119,124,0,1764980816.9232104
126,121,126,126,130,121,118,124,0,1764980816.9232128
125,122,126,126,128,120,116,123,0,1764980816.9232152
125,121,125,126,122,118,115,124,0,1764980816.9232173
125,121,125,126,116,116,114,124,0,1764980816.9232197
125,122,125,126,101,115,113,122,0,1764980816.923222
125,123,125,125,80,114,113,121,0,1764980816.9232242
125,124,125,125,57,115,113,121,0,1764980816.9232266
125,125,125,126,36,115,113,120,0,1764980816.923229
125,126,124,126,25,116,115,121,0,1764980816.923231
127,128,124,127,18,115,119,124,0,1764980816.9232333
128,130,123,128,28,115,124,126,0,1764980816.9232357
128,131,123,129,66,116,128,128,0,1764980816.9232378
129,132,123,130,116,118,133,129,0,1764980816.9434361
128,131,124,130,155,122,136,128,0,1764980816.9434407
126,129,124,131,201,126,136,127,0,1764980816.9434433
125,127,124,131,237,131,136,125,0,1764980816.9434454
124,125,124,131,250,136,136,124,0,1764980816.9434478
123,124,124,130,250,145,135,123,0,1764980816.9434502
124,123,124,130,250,151,133,123,0,1764980816.9434521
124,122,124,129,250,153,133,123,0,1764980816.9434545
124,123,124,128,251,156,132,123,0,1764980816.9434566
124,122,124,128,251,155,131,123,0,1764980816.943459
124,122,125,128,240,147,129,123,0,1764980816.9434614
124,122,125,126,222,139,127,122,0,1764980816.9434667
124,122,124,125,201,135,125,122,0,1764980816.9434693
124,122,124,125,177,131,124,122,0,1764980816.9434714
124,124,123,124,152,128,124,123,0,1764980816.9434736
124,125,122,124,138,125,126,125,0,1764980816.943476
124,126,122,124,130,124,129,126,0,1764980816.9939213
125,127,123,124,126,124,133,127,0,1764980816.9939268
125,127,123,123,124,127,134,127,0,1764980816.9939296
125,126,124,123,123,130,134,127,0,1764980816.9939327
125,126,125,122,123,133,132,126,0,1764980816.9939356
126,125,125,122,122,134,130,125,0,1764980816.9939387
125,125,124,122,122,133,128,126,0,1764980816.9939415
124,125,123,121,122,130,127,127,0,1764980816.9939442
124,124,123,121,122,125,126,126,0,1764980816.9939466
124,124,122,120,122,121,126,125,0,1764980816.9939492
123,122,122,121,122,118,125,124,0,1764980816.993952
124,121,123,121,122,118,124,122,0,1764980816.9939547
124,121,124,121,122,115,122,121,0,1764980816.993957
125,121,124,121,122,117,122,121,0,1764980816.9939597
126,122,124,123,122,123,123,122,0,1764980816.9939625
126,122,124,124,122,125,123,124,0,1764980816.9939654
127,122,124,124,121,125,123,125,0,1764980817.0141847
127,123,124,125,121,126,123,125,0,1764980817.0141895
126,122,125,126,121,126,123,125,0,1764980817.0141923
126,121,125,126,121,123,122,124,0,1764980817.014195
126,122,125,125,121,121,122,123,0,1764980817.0141976
125,123,125,125,122,121,122,123,0,1764980817.0142038
126,123,125,125,122,120,123,123,0,1764980817.0142064
125,124,125,123,122,117,123,124,0,1764980817.0142088
125,125,124,123,122,114,124,126,0,1764980817.0142117
125,125,125,122,122,111,124,126,0,1764980817.014214
125,125,125,121,122,106,124,126,0,1764980817.0142164
125,124,125,121,122,104,122,125,0,1764980817.014219
125,123,125,121,122,103,120,124,0,1764980817.0142214
126,123,125,122,122,105,119,123,0,1764980817.0142233
126,122,125,123,123,109,116,121,0,1764980817.0142257
126,121,124,124,122,113,116,121,0,1764980817.014228
127,122,123,126,98,118,116,121,0,1764980817.0645897
127,122,122,127,104,122,117,122,0,1764980817.0645933
127,122,122,127,108,125,115,121,0,1764980817.064596
127,122,122,127,110,128,115,120,0,1764980817.0645983
127,123,122,127,111,132,115,119,0,1764980817.0646005
126,123,123,127,137,135,114,119,0,1764980817.0646029
125,123,124,127,131,135,114,120,0,1764980817.0646052
125,125,125,128,128,133,115,121,0,1764980817.0646071
125,126,125,128,127,130,115,122,0,1764980817.0646095
125,127,125,128,126,130,114,123,0,1764980817.0646117
124,127,125,128,125,130,114,123,0,1764980817.0646138
124,127,124,127,125,135,113,123,0,1764980817.064616
124,125,124,126,126,134,111,122,0,1764980817.0646183
124,124,123,126,126,134,108,120,0,1764980817.0646262
124,124,123,126,126,127,105,120,0,1764980817.0646312
124,124,123,126,126,117,100,119,0,1764980817.0646338
124,125,123,126,126,105,97,120,0,1764980817.084799
125,125,123,127,126,102,95,121,0,1764980817.084803
125,126,124,126,126,98,95,121,0,1764980817.084806
124,125,125,124,126,100,96,119,0,1764980817.084808
124,123,124,123,126,108,99,117,0,1764980817.0848105
123,120,124,121,126,123,100,114,0,1764980817.084813
122,119,124,122,126,138,103,110,0,1764980817.0848155
122,118,123,123,126,149,107,108,0,1764980817.084818
123,118,123,125,126,159,111,109,0,1764980817.0848203
124,120,123,127,126,164,113,110,0,1764980817.0848224
125,121,123,129,126,165,114,111,0,1764980817.0848248
126,123,124,130,126,161,114,112,0,1764980817.0848272
126,124,124,130,126,159,111,111,0,1764980817.0848327
126,125,125,130,126,160,105,108,0,1764980817.0848353
125,125,124,131,126,164,96,106,0,1764980817.0848413
124,125,124,130,126,165,94,108,0,1764980817.0848439
124,125,123,129,126,162,93,111,0,1764980817.125265
124,125,123,126,127,156,94,116,0,1764980817.1252694
125,125,123,123,122,154,99,121,0,1764980817.1252725
127,126,123,122,111,153,107,124,0,1764980817.1252751
129,127,123,122,87,168,114,125,0,1764980817.125278
130,127,124,123,69,178,120,125,0,1764980817.1252809
132,127,124,126,57,196,128,125,0,1764980817.1252832
134,128,124,130,54,198,137,123,0,1764980817.1252856
136,127,124,132,55,193,143,121,0,1764980817.1252878
138,128,124,133,70,176,144,118,0,1764980817.1252902
139,129,124,134,94,166,141,117,0,1764980817.1252925
138,128,123,133,119,152,132,115,0,1764980817.1252952
135,127,123,132,125,144,120,113,0,1764980817.1252973
131,126,123,132,134,143,114,111,0,1764980817.1252997
127,125,123,131,149,142,112,108,0,1764980817.125302
124,124,123,130,142,140,116,105,0,1764980817.125309
122,124,124,127,153,143,127,101,0,1764980817.1454177
121,124,124,125,144,151,134,98,0,1764980817.1454206
121,125,123,122,170,146,139,95,0,1764980817.1454234
122,125,122,119,185,141,141,95,0,1764980817.145426
121,124,122,115,208,150,138,92,0,1764980817.1454313
119,123,123,113,194,158,134,89,0,1764980817.1454337
117,123,123,114,210,163,135,89,0,1764980817.1454358
116,122,123,115,162,168,134,89,0,1764980817.1454382
116,121,123,116,133,168,137,90,0,1764980817.1454406
116,123,122,118,120,159,141,91,0,1764980817.1454425
117,125,122,118,108,163,144,95,0,1764980817.1454449
117,125,122,117,98,165,142,98,0,1764980817.145447
116,124,123,116,108,170,140,98,0,1764980817.1454492
115,124,123,115,94,178,134,98,0,1764980817.1454515
115,122,124,114,61,177,128,98,0,1764980817.1454542
115,121,124,112,36,172,126,93,0,1764980817.1454563
117,120,124,112,15,171,131,90,0,1764980817.165583
119,121,124,112,4,173,138,90,0,1764980817.1756794
120,121,124,112,0,167,142,91,0,1764980817.175687
122,122,124,113,0,158,148,90,0,1764980817.1756895
123,122,125,114,0,147,148,89,0,1764980817.1756918
125,122,125,115,0,135,150,90,0,1764980817.175694
126,122,124,116,0,125,148,93,0,1764980817.1756966
130,122,125,117,0,116,150,96,0,1764980817.1757023
135,123,125,119,0,105,151,101,0,1764980817.1757045
139,124,125,121,0,93,152,110,0,1764980817.175707
143,125,126,123,0,90,146,122,0,1764980817.1757095
147,127,125,125,0,87,146,131,0,1764980817.1757116
149,127,125,125,0,89,142,138,0,1764980817.175714
150,126,125,125,0,94,137,146,0,1764980817.1757164
151,124,126,124,0,93,130,148,0,1764980817.1757183
154,122,126,123,0,82,124,147,0,1764980817.1757207
154,121,126,124,0,76,115,144,0,1764980817.216122
150,121,126,124,6,84,112,142,0,1764980817.2161267
140,122,125,126,29,107,109,140,0,1764980817.21613
129,125,124,126,68,124,112,137,0,1764980817.2161329
114,128,123,127,117,139,116,133,0,1764980817.2161355
102,128,123,128,168,148,119,131,0,1764980817.216138
96,127,123,129,212,143,116,132,0,1764980817.2161405
94,125,124,130,238,126,112,131,0,1764980817.216143
95,123,123,132,249,118,105,133,0,1764980817.2161455
98,122,123,134,250,109,101,143,0,1764980817.216148
102,122,123,137,250,114,98,152,0,1764980817.2161503
107,123,123,139,250,119,102,162,0,1764980817.2161524
112,125,123,143,250,131,108,177,0,1764980817.2161548
117,125,124,145,250,136,116,190,0,1764980817.2161572
120,125,123,144,250,137,121,196,0,1764980817.2161596
123,124,124,142,250,124,121,200,0,1764980817.2161663
124,123,124,139,241,107,120,201,0,1764980817.2363646
124,122,124,135,219,91,117,199,0,1764980817.2363725
125,123,125,133,187,86,118,197,0,1764980817.236375
128,125,124,132,146,79,123,198,0,1764980817.2363772
130,127,124,132,98,68,132,198,0,1764980817.2363796
132,128,124,132,56,64,142,197,0,1764980817.2364113
133,129,124,130,29,55,153,196,0,1764980817.2364137
133,128,124,127,10,38,157,192,0,1764980817.2364223
132,127,125,125,2,32,159,181,0,1764980817.2364254
130,125,125,123,0,35,161,168,0,1764980817.236428
128,125,126,122,0,44,163,157,0,1764980817.2364302
127,126,125,121,0,52,166,146,0,1764980817.236432
125,127,125,121,0,58,168,135,0,1764980817.2364347
124,128,125,120,0,60,166,127,0,1764980817.236437
123,129,124,120,0,58,161,119,0,1764980817.2364392
122,127,123,119,0,55,153,109,0,1764980817.236444
121,124,123,119,7,53,140,98,0,1764980817.2868996
121,121,123,119,20,50,128,90,0,1764980817.2869053
121,121,123,119,34,48,120,83,0,1764980817.2869084
121,121,123,120,52,51,116,79,0,1764980817.2869105
123,123,122,120,74,59,115,81,0,1764980817.2869194
124,125,122,121,97,69,119,80,0,1764980817.2869213
126,127,122,121,121,86,127,75,0,1764980817.286923
128,127,122,120,149,105,133,68,0,1764980817.286925
128,126,122,119,177,118,136,60,0,1764980817.2869267
127,125,123,118,202,123,136,49,0,1764980817.2869287
126,124,123,118,221,125,136,45,0,1764980817.2869308
126,124,122,117,234,128,133,51,0,1764980817.2869325
125,124,121,118,240,136,130,66,0,1764980817.2869394
125,125,122,121,244,144,130,82,0,1764980817.286942
125,126,122,123,246,155,131,96,0,1764980817.2869473
126,125,123,125,248,162,130,107,0,1764980817.2869527
125,125,124,127,248,140,124,116,0,1764980817.307129
124,124,124,128,248,119,118,119,0,1764980817.3071344
125,123,124,128,246,103,109,122,0,1764980817.3071382
125,122,124,129,241,91,102,129,0,1764980817.3071425
126,123,123,130,231,84,97,137,0,1764980817.3071465
128,123,122,130,218,101,97,137,0,1764980817.3071504
129,124,122,128,205,112,98,135,0,1764980817.307154
129,124,122,126,191,118,100,136,0,1764980817.3071578
129,124,123,122,179,122,100,139,0,1764980817.3071616
129,123,124,118,170,126,100,142,0,1764980817.307165
128,122,125,114,163,131,99,149,0,1764980817.3071685
127,122,125,113,156,134,97,157,0,1764980817.307172
126,123,125,114,151,138,99,160,0,1764980817.3071756
126,124,124,116,148,140,101,157,0,1764980817.3071795
125,124,124,118,145,139,103,154,0,1764980817.307183
125,125,124,120,143,138,106,153,0,1764980817.3071935
125,125,124,122,142,138,108,149,0,1764980817.367536
125,123,124,122,142,138,110,147,0,1764980817.3675416
124,121,124,123,143,138,115,145,0,1764980817.3675458
125,121,124,124,145,138,118,143,0,1764980817.3675497
125,121,123,124,145,138,119,142,0,1764980817.3675535
126,122,122,124,145,137,120,148,0,1764980817.3675573
126,124,122,125,143,135,122,154,0,1764980817.3675609
126,125,122,126,142,134,122,162,0,1764980817.3675644
126,126,122,127,140,135,123,167,0,1764980817.367568
125,125,123,127,140,135,126,169,0,1764980817.3675718
124,123,124,129,141,135,130,168,0,1764980817.3675754
124,122,124,130,143,137,133,166,0,1764980817.367579
125,121,124,131,142,138,136,161,0,1764980817.3675828
125,122,124,131,140,136,140,157,0,1764980817.3675864
126,124,124,132,137,135,146,153,0,1764980817.3675954
126,125,123,132,135,132,152,150,0,1764980817.3675992
126,126,123,129,134,130,157,145,0,1764980817.3776674
126,125,123,126,135,128,159,140,0,1764980817.3776715
126,124,123,122,139,127,160,137,0,1764980817.3776748
125,122,122,117,143,127,158,133,0,1764980817.3776784
124,122,123,111,147,125,152,131,0,1764980817.377682
124,121,123,107,149,123,149,130,0,1764980817.3776853
124,123,123,104,150,120,148,130,0,1764980817.377689
124,123,123,102,149,117,148,131,0,1764980817.377695
124,124,124,103,148,114,146,136,0,1764980817.3776984
125,125,124,105,148,114,145,136,0,1764980817.377702
125,125,124,108,147,115,142,135,0,1764980817.377705
125,123,124,111,148,117,137,134,0,1764980817.3777084
125,123,124,114,149,120,132,132,0,1764980817.3777118
125,124,124,116,149,121,131,127,0,1764980817.3777153
126,125,123,118,147,122,137,130,0,1764980817.3777187
127,126,123,120,146,122,141,134,0,1764980817.3777227
128,127,123,122,144,123,145,136,0,1764980817.3978462
127,126,123,124,144,124,148,136,0,1764980817.3978505
126,125,123,126,145,127,148,133,0,1764980817.3978546
125,123,123,127,147,130,140,126,0,1764980817.397858
124,121,123,127,148,131,134,120,0,1764980817.397864
123,121,123,126,148,131,131,117,0,1764980817.3978674
124,122,123,126,147,130,130,119,0,1764980817.397871
125,123,123,126,145,127,131,122,0,1764980817.3978746
125,124,124,127,143,125,131,126,0,1764980817.397878
125,123,124,128,143,124,131,129,0,1764980817.3978815
126,123,125,128,144,124,130,130,0,1764980817.3978848
125,122,125,129,145,125,127,130,0,1764980817.3978882
125,122,125,128,146,127,124,131,0,1764980817.3978915
125,122,124,126,145,127,122,131,0,1764980817.397895
126,123,124,125,143,126,122,133,0,1764980817.3978987
126,124,125,125,139,125,125,137,0,1764980817.397903
126,124,124,124,134,124,127,139,0,1764980817.4582732
126,125,124,124,130,122,129,139,0,1764980817.458278
126,124,124,125,129,123,130,138,0,1764980817.4582815
125,123,124,125,127,123,130,133,0,1764980817.458285
125,123,124,124,128,125,127,129,0,1764980817.4582887
124,123,125,124,129,126,125,127,0,1764980817.458292
125,123,125,124,127,125,124,128,0,1764980817.4582956
125,124,125,124,125,123,124,130,0,1764980817.4582994
126,126,124,123,121,122,125,133,0,1764980817.4583027
126,127,124,123,117,120,127,135,0,1764980817.4583063
126,126,123,124,113,120,129,135,0,1764980817.45831
125,125,123,124,111,123,126,133,0,1764980817.4583137
124,123,123,124,112,126,123,130,0,1764980817.4583173
123,122,123,124,114,129,120,128,0,1764980817.4583206
124,120,124,124,115,131,117,126,0,1764980817.4583282
124,121,124,123,117,131,116,126,0,1764980817.458337
125,122,124,122,119,129,119,126,0,1764980817.4885206
126,124,124,122,119,127,123,126,0,1764980817.4885244
125,124,124,122,118,126,126,126,0,1764980817.488528
125,124,125,122,119,125,124,124,0,1764980817.4885318
124,124,124,123,121,126,120,121,0,1764980817.488535
124,123,124,123,121,127,118,120,0,1764980817.4885383
124,122,124,124,120,126,116,120,0,1764980817.4885418
125,123,123,124,119,124,114,122,0,1764980817.4885452
125,124,123,124,116,122,119,123,0,1764980817.4885485
126,125,122,124,110,119,125,124,0,1764980817.488552
125,125,122,124,106,119,129,123,0,1764980817.4885585
125,126,123,124,105,121,131,121,0,1764980817.488562
124,124,124,124,104,124,131,119,0,1764980817.4885654
124,123,124,124,104,126,129,119,0,1764980817.4885688
123,121,125,124,104,128,126,119,0,1764980817.4885721
124,120,126,123,103,128,124,121,0,1764980817.488576
124,121,126,122,100,127,125,123,0,1764980817.5087934
125,122,125,122,98,125,127,124,0,1764980817.508798
125,123,124,123,98,125,128,124,0,1764980817.5088005
126,123,123,123,100,125,128,122,0,1764980817.5088031
125,123,123,124,105,127,127,118,0,1764980817.5088053
124,122,123,123,110,129,124,115,0,1764980817.5088077
124,121,123,123,114,130,121,112,0,1764980817.5088103
124,122,124,122,117,132,120,112,0,1764980817.5088189
125,124,125,123,119,133,121,114,0,1764980817.5088217
126,126,125,123,119,131,125,117,0,1764980817.508824
127,127,125,123,120,130,127,119,0,1764980817.5088263
127,127,125,124,123,131,129,120,0,1764980817.5088286
127,125,125,126,127,132,129,120,0,1764980817.508831
126,122,124,126,131,133,129,119,0,1764980817.5088387
124,120,123,126,135,134,128,119,0,1764980817.508841
124,120,123,126,137,136,129,120,0,1764980817.5088477
124,121,123,126,137,135,131,121,0,1764980817.5290253
124,124,124,125,136,132,133,123,0,1764980817.5290442
125,125,124,125,134,129,135,125,0,1764980817.5290668
125,127,125,125,131,127,135,125,0,1764980817.5290694
125,126,125,124,130,127,134,123,0,1764980817.5290718
125,125,125,123,129,128,131,121,0,1764980817.5290744
124,123,125,122,127,129,128,119,0,1764980817.5290768
124,122,125,122,126,130,126,117,0,1764980817.5290792
124,122,125,121,123,128,125,117,0,1764980817.5290816
124,123,125,122,119,126,123,117,0,1764980817.5290842
125,124,124,122,115,122,122,118,0,1764980817.5290864
125,125,123,123,111,119,122,119,0,1764980817.529089
125,125,123,125,109,120,120,119,0,1764980817.5290914
125,124,123,126,110,121,118,118,0,1764980817.5290937
124,122,124,127,114,124,118,117,0,1764980817.529096
124,121,124,127,118,126,118,116,0,1764980817.5290985
124,121,124,127,122,128,119,116,0,1764980817.5795913
124,122,123,127,124,127,121,117,0,1764980817.5795968
125,124,123,126,124,124,124,118,0,1764980817.5795996
125,126,123,125,124,122,126,119,0,1764980817.5796025
126,127,123,126,126,122,127,121,0,1764980817.579605
126,126,123,125,127,121,124,120,0,1764980817.5796075
125,123,123,125,130,123,120,118,0,1764980817.57961
125,122,124,125,133,125,115,118,0,1764980817.5796125
125,121,124,125,134,127,113,118,0,1764980817.5796149
125,122,125,126,133,127,112,119,0,1764980817.579617
126,124,125,126,131,126,114,122,0,1764980817.5796194
127,126,124,125,128,125,116,125,0,1764980817.5796216
127,126,124,125,125,124,119,126,0,1764980817.579624
126,126,124,125,123,124,120,125,0,1764980817.5796263
126,124,125,125,122,125,119,122,0,1764980817.579634
125,123,126,125,123,125,118,119,0,1764980817.5796366
124,123,127,125,123,125,118,117,0,1764980817.5998416
124,124,127,125,121,124,117,116,0,1764980817.5998456
124,126,126,124,119,123,118,118,0,1764980817.5998487
125,128,125,123,116,122,121,121,0,1764980817.5998514
126,128,124,124,113,121,124,122,0,1764980817.5998538
126,127,123,124,112,122,125,123,0,1764980817.5998561
125,125,123,123,113,124,124,121,0,1764980817.5998585
124,123,123,123,115,127,124,120,0,1764980817.5998607
124,122,123,123,117,128,122,119,0,1764980817.5998635
124,121,124,123,118,129,121,120,0,1764980817.5998662
124,122,124,122,118,128,121,121,0,1764980817.5998688
125,123,124,122,117,125,124,124,0,1764980817.599871
126,124,123,122,117,123,125,125,0,1764980817.5998733
126,125,123,123,117,122,125,125,0,1764980817.599876
125,125,122,123,121,123,124,123,0,1764980817.5998821
125,125,123,124,127,123,122,120,0,1764980817.599885
125,124,124,125,133,125,119,118,0,1764980817.620089
124,123,125,126,137,125,118,117,0,1764980817.6200929
125,123,126,126,139,125,119,120,0,1764980817.6200955
125,124,127,127,137,124,121,123,0,1764980817.6200979
126,125,127,126,136,124,124,128,0,1764980817.6201
126,126,126,125,135,124,125,130,0,1764980817.6201065
127,126,125,125,136,125,124,130,0,1764980817.6201088
126,124,124,124,138,126,122,127,0,1764980817.6201115
126,123,124,122,140,128,120,122,0,1764980817.6201136
125,122,124,123,141,130,118,119,0,1764980817.6201162
125,122,124,122,140,131,116,118,0,1764980817.6201186
125,123,124,122,137,129,117,121,0,1764980817.6201208
125,124,124,122,134,127,118,124,0,1764980817.620126
126,125,123,123,131,125,120,125,0,1764980817.6201284
126,125,123,123,128,124,120,125,0,1764980817.6201308
125,124,123,124,126,124,120,123,0,1764980817.6201339
125,122,122,124,124,125,120,118,0,1764980817.6705272
124,121,123,123,122,126,121,115,0,1764980817.6705332
124,121,123,123,121,127,121,115,0,1764980817.670537
124,122,123,123,119,126,123,117,0,1764980817.6705444
125,124,123,123,117,124,127,120,0,1764980817.670548
125,127,123,124,117,123,129,123,0,1764980817.6705515
125,127,123,125,120,124,129,125,0,1764980817.6705554
125,127,123,126,124,123,127,125,0,1764980817.670559
124,125,123,127,128,124,124,123,0,1764980817.6705623
124,124,124,126,135,125,121,122,0,1764980817.6705658
124,123,124,125,140,125,118,121,0,1764980817.6705694
124,123,125,125,143,122,118,121,0,1764980817.6705728
125,123,125,123,143,120,119,122,0,1764980817.6705763
126,125,126,123,144,117,120,124,0,1764980817.6705797
127,125,125,123,143,115,120,123,0,1764980817.670583
127,124,125,124,141,116,120,122,0,1764980817.670587
126,123,124,125,141,119,118,120,0,1764980817.6907609
124,122,124,126,141,122,116,118,0,1764980817.6907656
124,122,124,126,140,124,116,118,0,1764980817.6907685
124,123,125,126,141,125,116,119,0,1764980817.690771
124,124,125,125,140,124,119,122,0,1764980817.6907737
125,126,125,123,137,122,123,125,0,1764980817.690776
126,127,124,122,134,121,126,128,0,1764980817.6907783
126,126,123,121,132,121,127,128,0,1764980817.6907806
125,125,122,122,128,123,127,127,0,1764980817.690783
125,123,122,121,127,125,124,125,0,1764980817.6907852
124,122,123,121,126,128,121,124,0,1764980817.6907876
124,122,124,122,125,129,119,124,0,1764980817.69079
125,123,124,122,122,129,119,125,0,1764980817.690792
125,124,124,122,118,128,121,127,0,1764980817.6907945
126,126,124,123,114,127,123,128,0,1764980817.6908011
127,127,124,123,112,127,123,128,0,1764980817.690805
126,126,124,124,111,129,122,126,0,1764980817.7312107
126,125,124,124,113,131,120,123,0,1764980817.731216
125,123,124,125,116,135,116,119,0,1764980817.731218
125,122,125,125,120,138,114,116,0,1764980817.7312205
125,121,124,125,122,140,113,114,0,1764980817.7312229
126,122,123,125,123,137,115,114,0,1764980817.7312298
127,123,123,125,125,132,118,116,0,1764980817.731232
127,124,123,126,129,125,121,118,0,1764980817.7312343
126,124,123,127,133,119,123,119,0,1764980817.731241
126,123,123,127,140,115,124,120,0,1764980817.7312436
125,123,124,127,148,108,122,121,0,1764980817.7312455
124,123,124,127,154,106,120,120,0,1764980817.731248
124,123,124,125,158,107,119,119,0,1764980817.7312498
124,125,124,125,162,110,120,120,0,1764980817.7312522
125,126,124,124,165,113,122,122,0,1764980817.7312543
126,128,124,123,170,123,126,122,0,1764980817.7312567
125,127,124,123,177,135,125,123,0,1764980817.751438
125,126,125,123,188,134,121,122,0,1764980817.7514434
124,124,124,124,200,135,118,123,0,1764980817.7514474
123,122,124,125,211,135,116,124,0,1764980817.75145
123,120,124,126,221,132,116,125,0,1764980817.7514534
124,120,124,126,231,121,123,128,0,1764980817.751457
125,122,123,127,236,119,131,131,0,1764980817.7514606
126,123,123,128,237,113,137,133,0,1764980817.751463
126,123,123,128,233,108,140,132,0,1764980817.7514653
126,123,123,129,219,107,139,131,0,1764980817.7514675
125,122,124,131,199,110,134,129,0,1764980817.7514696
124,121,125,131,178,114,128,128,0,1764980817.7514718
123,121,125,131,159,116,125,129,0,1764980817.7514741
123,122,125,131,142,116,125,132,0,1764980817.7514768
124,124,125,131,134,114,127,136,0,1764980817.7514799
125,126,124,130,130,112,131,139,0,1764980817.7514863
126,127,123,130,126,112,133,139,0,1764980817.781725
127,126,123,128,120,114,133,137,0,1764980817.781731
127,124,123,127,110,118,129,132,0,1764980817.7817347
126,122,123,125,96,124,125,127,0,1764980817.7817435
125,121,124,122,82,130,120,122,0,1764980817.7817473
124,121,125,121,68,135,119,120,0,1764980817.7817514
123,123,124,119,59,137,119,119,0,1764980817.7817552
123,125,124,118,56,140,119,118,0,1764980817.7817593
123,126,123,117,59,146,119,117,0,1764980817.7817628
123,126,122,117,64,154,119,114,0,1764980817.7817664
123,125,122,117,75,164,115,108,0,1764980817.78177
122,124,122,119,92,178,110,100,0,1764980817.7817738
123,123,123,121,112,193,105,92,0,1764980817.7817774
123,123,123,123,131,207,102,84,0,1764980817.7817807
123,123,123,125,148,218,102,78,0,1764980817.7817843
123,124,123,128,164,229,107,77,0,1764980817.7817886
123,124,123,130,177,231,114,77,0,1764980817.8220935
123,123,123,131,185,233,121,83,0,1764980817.8220994
122,123,123,134,192,232,126,89,0,1764980817.8221035
122,122,124,135,196,225,130,96,0,1764980817.8221076
123,122,125,137,189,212,132,100,0,1764980817.8221118
123,122,125,140,175,205,135,105,0,1764980817.8221154
123,124,125,141,161,195,141,110,0,1764980817.8221195
123,125,125,141,145,180,146,114,0,1764980817.822123
122,125,124,142,129,176,150,120,0,1764980817.8221266
122,125,124,139,116,163,151,126,0,1764980817.82213
121,124,125,137,102,151,149,131,0,1764980817.8221335
120,122,125,135,86,139,145,134,0,1764980817.8221376
120,121,125,133,68,121,141,136,0,1764980817.8221412
119,122,125,129,50,103,137,136,0,1764980817.8221447
119,123,124,127,33,97,137,138,0,1764980817.8221486
121,125,124,124,20,86,140,139,0,1764980817.8221595
123,126,123,120,9,75,143,139,0,1764980817.8423092
124,126,123,117,2,81,140,140,0,1764980817.8423147
125,126,123,120,0,94,135,139,0,1764980817.842319
123,124,123,124,0,123,129,134,0,1764980817.8423226
120,123,123,126,0,152,120,128,0,1764980817.8423297
118,123,124,130,0,186,112,121,0,1764980817.8423336
118,122,124,135,11,205,113,114,0,1764980817.8423948
118,123,123,136,42,211,118,111,0,1764980817.8424003
119,124,124,136,80,199,123,109,0,1764980817.8424032
120,124,123,139,123,180,127,104,0,1764980817.8424056
118,124,123,139,169,159,123,100,0,1764980817.8424084
116,124,123,138,208,146,112,95,0,1764980817.8424108
111,124,124,135,227,130,96,87,0,1764980817.8424225
106,126,124,133,239,127,78,80,0,1764980817.842425
104,127,124,131,246,149,66,77,0,1764980817.8424327
103,129,124,130,250,169,69,76,0,1764980817.8424358
103,130,123,128,250,190,82,78,0,1764980817.8929083
104,129,123,127,247,221,98,84,0,1764980817.892913
104,126,123,124,234,239,118,92,0,1764980817.892916
104,123,123,123,215,229,139,99,0,1764980817.8929186
104,120,124,121,192,196,153,106,0,1764980817.892921
104,120,125,120,169,149,165,112,0,1764980817.8929236
107,122,125,120,147,99,181,122,0,1764980817.8929305
108,125,126,121,136,49,193,137,0,1764980817.892933
106,130,126,121,130,12,202,157,0,1764980817.8929353
99,133,125,117,127,0,207,178,0,1764980817.8929377
88,134,125,112,125,0,208,195,0,1764980817.89294
71,134,124,107,124,0,203,201,0,1764980817.8929424
53,133,124,102,123,0,195,201,0,1764980817.8929448
34,134,124,100,123,0,189,196,0,1764980817.892947
19,136,125,102,123,0,183,193,0,1764980817.8929496
8,139,126,106,123,0,179,189,0,1764980817.892952
2,144,126,111,123,0,175,181,0,1764980817.9131837
0,148,126,118,123,0,174,167,0,1764980817.9131892
0,148,125,127,124,10,168,146,0,1764980817.9131913
0,148,124,132,124,30,160,121,0,1764980817.9131942
0,144,123,137,124,51,147,98,0,1764980817.9131968
0,137,122,140,124,73,134,82,0,1764980817.9132025
18,129,121,140,124,108,123,65,0,1764980817.913205
61,127,121,140,124,134,114,53,0,1764980817.913207
111,125,121,142,124,117,102,44,0,1764980817.9132094
161,126,121,142,124,96,92,39,0,1764980817.9132116
211,132,122,144,124,93,78,35,0,1764980817.913214
243,133,122,145,124,91,59,37,0,1764980817.9132164
251,130,122,145,124,96,47,43,0,1764980817.9132185
250,126,123,143,124,131,45,48,0,1764980817.9132223
250,121,123,142,124,175,37,57,0,1764980817.9132247
251,116,124,138,124,203,38,73,0,1764980817.913227
251,117,124,131,123,212,49,90,0,1764980817.9636948
250,124,125,126,122,208,56,104,0,1764980817.9637003
250,130,125,122,122,216,70,119,0,1764980817.9637027
250,133,125,117,122,222,100,128,0,1764980817.9637055
250,136,126,116,122,225,132,129,0,1764980817.9637082
246,135,126,116,122,230,158,125,0,1764980817.9637105
230,131,126,118,122,234,177,124,0,1764980817.9637127
208,127,127,118,123,205,172,127,0,1764980817.9637153
180,128,128,120,123,169,156,135,0,1764980817.963718
148,129,128,121,123,120,135,148,0,1764980817.9637206
117,130,127,123,123,71,112,163,0,1764980817.9637227
94,133,127,123,123,31,91,170,0,1764980817.9637253
77,135,126,123,123,14,83,167,0,1764980817.9637275
71,136,125,125,123,26,84,158,0,1764980817.9637296
74,134,124,128,123,52,85,145,0,1764980817.963732
82,132,124,130,123,76,82,131,0,1764980817.963735
93,126,124,133,124,102,80,123,0,1764980817.9839964
106,119,123,135,124,132,83,121,0,1764980817.9840014
122,115,122,137,124,147,89,123,0,1764980817.984004
134,115,122,137,123,171,98,130,0,1764980817.9840064
150,115,122,136,123,197,98,137,0,1764980817.984009
169,117,121,134,123,221,107,141,0,1764980817.9840114
187,120,123,132,123,242,127,145,0,1764980817.984014
195,120,123,132,124,250,139,139,0,1764980817.9840164
200,120,124,133,124,250,146,131,0,1764980817.9840188
197,118,124,133,124,250,162,126,0,1764980817.984021
188,116,125,133,124,250,170,122,0,1764980817.9840302
174,111,125,131,123,250,162,116,0,1764980817.9840329
159,107,124,127,123,250,152,108,0,1764980817.9840345
141,102,124,121,123,251,152,97,0,1764980817.9840367
123,96,124,114,123,248,152,85,0,1764980817.9840388
107,93,125,109,123,243,155,74,0,1764980817.9840412
95,92,125,105,123,230,165,60,0,1764980818.0042422
84,94,125,104,123,183,177,52,0,1764980818.004249
77,97,125,102,122,142,179,54,0,1764980818.0042524
73,100,124,100,122,115,176,68,0,1764980818.0042548
72,103,123,98,122,91,174,84,0,1764980818.0042577
71,103,123,97,122,84,169,107,0,1764980818.0042603
72,104,123,96,122,127,157,134,0,1764980818.0042627
79,104,124,96,122,152,143,158,0,1764980818.0042653
90,104,124,97,123,151,140,171,0,1764980818.0042675
101,104,124,99,123,133,140,179,0,1764980818.00427
116,106,124,101,123,111,133,193,0,1764980818.0042727
129,107,125,101,123,70,126,209,0,1764980818.0042748
138,108,124,101,123,48,132,220,0,1764980818.0042772
142,108,123,103,123,40,135,229,0,1764980818.0042796
145,106,123,104,122,39,133,239,0,1764980818.0042818
144,103,122,105,122,41,136,242,0,1764980818.004291
148,99,122,105,123,54,149,236,0,1764980818.044655
155,94,123,105,123,62,160,234,0,1764980818.0446599
163,91,122,104,122,74,166,233,0,1764980818.044663
172,90,122,105,122,87,176,231,0,1764980818.044673
184,93,121,106,122,94,191,234,0,1764980818.0547888
192,100,121,107,123,89,195,233,0,1764980818.0547924
195,109,120,107,123,85,178,227,0,1764980818.0547955
193,118,121,105,123,85,164,218,0,1764980818.0548036
188,126,122,103,123,89,147,210,0,1764980818.0548062
176,134,123,102,123,78,125,194,0,1764980818.0548093
164,140,124,101,122,65,112,180,0,1764980818.0548117
152,146,125,100,122,47,120,169,0,1764980818.054814
142,151,125,100,122,29,130,162,0,1764980818.0548165
135,154,125,98,122,10,141,156,0,1764980818.054819
129,155,125,96,122,4,149,150,0,1764980818.0548217
121,154,124,96,121,8,148,142,0,1764980818.0548284
112,151,124,99,122,14,141,133,0,1764980818.0750515
104,147,124,104,122,30,134,126,0,1764980818.075056
99,145,124,111,122,47,126,118,0,1764980818.075059
96,143,124,117,121,65,122,117,0,1764980818.0750618
97,142,125,122,118,78,124,121,0,1764980818.0750644
102,142,125,126,114,92,129,127,0,1764980818.0750666
109,142,125,130,112,98,129,131,0,1764980818.075069
114,140,125,133,112,110,123,134,0,1764980818.0750716
119,138,124,136,117,124,118,135,0,1764980818.075074
122,134,124,138,125,139,118,137,0,1764980818.0750763
124,132,124,140,131,147,117,138,0,1764980818.075079
126,131,124,141,134,148,122,143,0,1764980818.075081
128,131,124,140,132,142,132,153,0,1764980818.0750902
131,132,124,141,127,135,142,161,0,1764980818.0750928
134,133,123,142,123,129,148,166,0,1764980818.075095
134,132,123,143,123,129,152,170,0,1764980818.0750976
132,130,123,143,124,132,154,171,0,1764980818.1154437
130,127,123,144,126,139,156,168,0,1764980818.1154482
126,125,124,143,125,148,157,164,0,1764980818.115451
122,124,124,141,121,153,157,159,0,1764980818.1154535
120,125,124,139,114,156,158,153,0,1764980818.115456
120,126,123,137,104,156,157,143,0,1764980818.1154585
119,128,123,135,94,154,155,132,0,1764980818.115461
117,127,122,133,84,152,149,119,0,1764980818.1154637
114,126,122,131,80,150,142,105,0,1764980818.1154656
111,125,123,130,77,150,133,92,0,1764980818.115468
107,123,124,128,83,149,125,83,0,1764980818.1154706
106,122,124,125,92,147,120,78,0,1764980818.1154726
108,122,125,123,105,144,116,77,0,1764980818.1154864
111,124,125,122,114,138,114,79,0,1764980818.115489
114,125,124,121,123,132,113,82,0,1764980818.1154916
116,126,124,122,131,128,111,84,0,1764980818.1154945
116,126,124,124,145,125,107,85,0,1764980818.1357172
115,126,123,126,160,124,103,86,0,1764980818.1357217
113,124,124,128,171,124,100,86,0,1764980818.1357245
112,122,124,130,175,125,98,88,0,1764980818.1357274
113,122,124,131,172,123,98,91,0,1764980818.13573
115,122,124,131,161,119,100,95,0,1764980818.1357322
119,124,124,131,146,113,102,99,0,1764980818.1357348
121,126,124,130,134,110,104,102,0,1764980818.1357372
122,126,124,127,128,107,105,104,0,1764980818.1357393
122,126,124,125,125,108,102,103,0,1764980818.1357417
120,125,123,124,124,110,100,103,0,1764980818.1357443
119,123,124,124,123,113,98,104,0,1764980818.1357467
118,123,125,124,123,115,97,106,0,1764980818.135749
120,125,125,125,123,114,99,109,0,1764980818.1357517
121,126,124,127,123,111,103,113,0,1764980818.1357536
123,127,125,129,123,109,108,116,0,1764980818.1357572
123,127,125,130,123,107,110,116,0,1764980818.1863468
123,126,124,130,122,107,111,114,0,1764980818.1863596
121,123,124,130,122,110,110,112,0,1764980818.1863635
119,121,125,129,122,115,109,111,0,1764980818.1863663
119,121,125,128,123,119,107,111,0,1764980818.186369
120,121,125,127,123,120,108,112,0,1764980818.1863713
123,123,125,127,123,119,110,115,0,1764980818.186374
126,125,125,127,123,118,111,118,0,1764980818.186376
128,126,124,128,123,117,112,119,0,1764980818.1863785
127,126,123,127,122,118,113,119,0,1764980818.1863809
126,125,123,126,122,121,111,118,0,1764980818.186383
124,123,123,125,123,126,109,116,0,1764980818.1863854
123,122,124,124,123,130,108,115,0,1764980818.1863878
124,123,124,123,122,131,109,115,0,1764980818.1863894
125,124,124,123,122,131,111,117,0,1764980818.1863918
127,125,124,123,122,129,114,119,0,1764980818.1864069
128,126,124,123,122,127,116,121,0,1764980818.2066095
127,126,123,123,122,126,117,122,0,1764980818.206624
126,125,122,123,122,128,116,120,0,1764980818.206632
124,123,123,123,122,130,115,119,0,1764980818.2066941
121,122,123,123,122,133,113,118,0,1764980818.2067018
120,122,123,122,122,134,113,118,0,1764980818.206707
121,123,123,122,122,132,115,120,0,1764980818.2067144
122,124,123,121,120,127,118,122,0,1764980818.2067194
124,126,122,121,121,123,120,124,0,1764980818.2067263
125,127,122,122,122,120,121,124,0,1764980818.2067316
125,126,123,123,123,120,120,122,0,1764980818.206738
123,124,124,124,124,123,118,120,0,1764980818.2073371
122,123,125,125,126,126,116,118,0,1764980818.2073443
122,122,125,125,125,128,116,117,0,1764980818.2073872
123,122,125,125,124,127,117,118,0,1764980818.207395
125,124,125,124,124,124,119,120,0,1764980818.2084916
128,125,125,123,123,121,121,123,0,1764980818.2287214
128,126,124,124,122,118,122,124,0,1764980818.2287283
127,126,124,124,122,117,121,123,0,1764980818.228732
125,124,124,125,122,119,120,121,0,1764980818.228736
123,122,124,125,122,121,117,120,0,1764980818.2287405
122,121,124,126,122,122,116,118,0,1764980818.2287443
122,122,124,125,117,122,116,118,0,1764980818.2287743
124,123,124,124,108,120,118,119,0,1764980818.228778
126,126,124,124,98,117,121,122,0,1764980818.228782
128,127,124,124,89,115,123,124,0,1764980818.2287855
128,128,124,122,85,116,122,124,0,1764980818.228789
127,127,124,121,89,118,120,123,0,1764980818.2287927
125,125,125,121,97,120,117,122,0,1764980818.2287962
123,123,125,120,104,122,114,120,0,1764980818.2287998
123,122,125,120,105,124,114,120,0,1764980818.2288036
123,123,124,120,96,122,116,121,0,1764980818.2288156
124,124,123,121,81,120,118,123,0,1764980818.2793431
126,126,122,121,64,119,121,125,0,1764980818.2793477
127,126,122,121,56,119,122,126,0,1764980818.2793505
126,125,122,122,55,119,122,125,0,1764980818.2793531
126,123,123,123,64,121,121,124,0,1764980818.2793558
124,121,125,124,76,124,120,121,0,1764980818.279358
123,121,126,126,89,125,119,120,0,1764980818.2793605
123,122,126,126,91,126,119,120,0,1764980818.2793627
124,124,126,127,87,125,121,121,0,1764980818.2793648
124,125,125,127,82,124,124,123,0,1764980818.2793672
125,125,124,126,81,124,125,124,0,1764980818.2793694
125,124,123,125,82,125,125,125,0,1764980818.2793717
124,123,123,125,92,128,125,124,0,1764980818.2793741
123,122,123,125,105,130,122,122,0,1764980818.2793763
122,122,123,125,115,131,120,120,0,1764980818.2793787
122,124,123,125,122,130,119,120,0,1764980818.2793818
123,126,123,125,124,128,121,122,0,1764980818.2995453
125,127,123,125,125,124,123,123,0,1764980818.2995517
126,127,123,125,128,122,125,125,0,1764980818.2995563
126,126,123,125,137,122,126,125,0,1764980818.2995598
125,124,123,125,148,123,125,124,0,1764980818.2995634
124,122,124,125,160,126,123,122,0,1764980818.2995672
123,120,124,125,170,128,121,121,0,1764980818.2995708
122,120,125,125,174,129,121,121,0,1764980818.2995746
123,120,124,125,171,127,122,123,0,1764980818.2995782
125,122,124,125,165,123,125,125,0,1764980818.2995818
126,124,124,125,156,119,127,127,0,1764980818.2995853
127,125,124,125,147,117,128,128,0,1764980818.2995882
126,125,124,126,141,117,126,127,0,1764980818.2995918
125,124,125,126,138,119,124,125,0,1764980818.299595
124,123,125,126,135,123,122,123,0,1764980818.2995982
123,123,126,127,135,125,121,122,0,1764980818.2996025
124,123,125,126,131,126,122,122,0,1764980818.339904
126,125,124,125,125,125,124,123,0,1764980818.3399081
127,126,124,124,119,123,126,125,0,1764980818.339911
127,126,123,123,114,122,127,124,0,1764980818.3399131
127,124,122,122,115,122,126,123,0,1764980818.339916
126,123,122,122,118,123,124,122,0,1764980818.3399186
124,121,124,122,123,125,122,120,0,1764980818.339921
123,121,124,122,126,126,120,119,0,1764980818.3399231
123,122,124,121,127,125,120,120,0,1764980818.3399255
124,124,124,121,125,123,121,122,0,1764980818.339928
126,125,124,121,121,119,123,125,0,1764980818.33993
127,127,123,121,122,118,125,126,0,1764980818.3399322
127,126,123,121,126,118,125,126,0,1764980818.3399348
126,125,124,123,136,120,124,125,0,1764980818.339937
125,123,124,124,150,125,122,123,0,1764980818.339939
125,122,124,126,161,129,120,122,0,1764980818.339947
124,122,124,126,167,131,119,121,0,1764980818.3601592
125,123,124,127,168,130,120,123,0,1764980818.3601632
126,124,123,126,160,127,122,125,0,1764980818.3601658
127,126,123,126,151,124,124,127,0,1764980818.3601682
127,126,122,124,146,122,125,127,0,1764980818.3601706
125,126,122,123,147,124,125,126,0,1764980818.3601768
123,123,121,122,150,127,124,123,0,1764980818.3601792
122,122,122,122,158,130,123,121,0,1764980818.3601813
122,122,123,122,163,132,123,120,0,1764980818.3601835
123,123,124,122,163,132,123,121,0,1764980818.3601856
126,125,125,123,157,128,125,123,0,1764980818.360188
128,127,125,123,149,124,126,125,0,1764980818.3601956
129,128,125,123,140,121,126,125,0,1764980818.3601978
129,127,125,124,134,119,126,126,0,1764980818.3602
127,125,125,124,129,122,124,124,0,1764980818.360202
125,123,126,124,126,125,123,122,0,1764980818.3602045
124,122,126,125,125,128,122,122,0,1764980818.4310515
123,122,126,125,124,128,122,123,0,1764980818.4310572
124,123,125,125,123,127,123,124,0,1764980818.43106
125,125,124,125,123,124,125,126,0,1764980818.4310625
126,126,123,125,123,121,126,126,0,1764980818.4310648
127,126,123,126,123,121,126,126,0,1764980818.4310677
125,125,123,126,123,123,124,124,0,1764980818.4310765
124,123,123,126,123,126,121,122,0,1764980818.431079
124,123,124,126,123,128,119,120,0,1764980818.4310813
124,123,125,125,123,128,119,120,0,1764980818.4310834
125,124,124,124,123,125,120,122,0,1764980818.4310858
127,125,124,124,123,121,122,125,0,1764980818.4310882
128,126,124,124,122,117,124,127,0,1764980818.4310904
127,126,122,124,122,116,125,127,0,1764980818.4310927
126,124,122,124,121,117,123,126,0,1764980818.4310951
124,122,122,123,119,122,121,124,0,1764980818.4310973
123,120,123,123,113,126,119,121,0,1764980818.4310994
123,119,124,123,105,127,118,121,0,1764980818.4311018
124,120,125,122,93,126,120,122,0,1764980818.4311054
126,122,125,123,81,123,122,124,0,1764980818.4311075
127,124,125,122,71,120,124,126,0,1764980818.43111
127,125,124,121,65,117,126,127,0,1764980818.431112
126,126,124,121,61,117,126,125,0,1764980818.4311142
124,124,124,121,63,120,124,123,0,1764980818.4311166
122,122,123,121,69,123,122,121,0,1764980818.4311228
122,121,123,122,73,125,120,120,0,1764980818.431125
123,121,124,123,75,125,121,121,0,1764980818.4311273
125,122,124,123,78,123,122,123,0,1764980818.4311333
127,124,124,124,78,120,124,125,0,1764980818.4311354
128,126,123,125,79,118,125,127,0,1764980818.4311378
128,126,124,126,83,118,125,127,0,1764980818.43114
127,126,123,127,93,121,124,126,0,1764980818.4311426
125,124,123,127,101,124,122,123,0,1764980818.4514668
124,122,124,127,107,127,121,122,0,1764980818.4514718
123,122,124,126,107,128,120,121,0,1764980818.4514747
124,123,124,126,102,127,121,122,0,1764980818.4514773
125,124,123,124,92,123,123,124,0,1764980818.45148
127,126,123,124,87,120,125,126,0,1764980818.4514823
127,127,123,123,87,119,126,126,0,1764980818.4514847
127,126,123,123,94,119,126,125,0,1764980818.451487
126,124,123,123,109,123,124,123,0,1764980818.4514947
125,122,124,123,124,127,122,122,0,1764980818.451497
123,121,124,124,136,130,121,121,0,1764980818.4514992
124,122,124,124,145,131,122,122,0,1764980818.4515018
125,124,124,125,151,131,124,124,0,1764980818.4515038
126,125,124,125,154,128,127,125,0,1764980818.4515061
126,126,124,126,160,127,128,126,0,1764980818.4515083
126,125,125,125,168,127,128,126,0,1764980818.4515157
125,122,125,124,177,129,126,125,0,1764980818.5021222
123,120,125,124,182,131,122,122,0,1764980818.5021274
122,120,125,124,180,132,119,120,0,1764980818.5021303
122,120,124,123,170,132,117,120,0,1764980818.5021324
123,121,124,123,155,130,118,121,0,1764980818.502135
124,125,124,123,137,127,120,123,0,1764980818.5021374
125,127,124,124,120,123,122,126,0,1764980818.5021396
125,126,125,123,110,122,124,126,0,1764980818.502142
124,125,125,123,106,122,124,124,0,1764980818.502151
122,123,126,123,108,124,122,122,0,1764980818.5021532
122,121,125,123,116,125,121,121,0,1764980818.5021555
122,121,125,123,124,126,121,120,0,1764980818.5021574
124,122,124,122,130,125,122,121,0,1764980818.5021598
126,124,124,121,133,123,123,123,0,1764980818.502162
127,126,123,121,138,121,125,126,0,1764980818.5021641
127,127,124,122,140,121,125,126,0,1764980818.502167
126,126,124,124,143,122,125,126,0,1764980818.522351
125,124,124,125,148,124,123,125,0,1764980818.522356
123,123,125,127,153,126,121,124,0,1764980818.5223584
123,123,125,128,150,128,121,123,0,1764980818.5223608
124,123,125,127,141,127,122,124,0,1764980818.5223632
127,124,124,125,131,123,123,126,0,1764980818.5223653
128,125,124,124,119,120,126,127,0,1764980818.5223675
129,126,123,123,110,118,127,127,0,1764980818.5223699
128,125,122,121,107,118,127,125,0,1764980818.522372
126,125,122,121,108,121,125,123,0,1764980818.5223746
124,123,122,120,111,125,124,122,0,1764980818.5223768
123,123,123,120,117,129,123,121,0,1764980818.5223787
124,123,123,121,121,131,123,122,0,1764980818.522381
126,124,123,123,123,130,125,124,0,1764980818.5223832
128,125,124,124,123,126,126,126,0,1764980818.5223851
129,126,124,125,125,123,128,127,0,1764980818.522388
129,125,124,126,127,122,129,126,0,1764980818.5829256
127,124,125,126,132,122,127,125,0,1764980818.5829303
125,122,125,125,139,124,125,123,0,1764980818.5829332
123,121,124,125,144,126,123,122,0,1764980818.5829356
122,121,124,124,146,127,122,122,0,1764980818.5829382
123,122,124,124,147,126,122,124,0,1764980818.5829403
125,125,124,124,145,122,124,126,0,1764980818.5829432
126,127,124,125,142,120,126,128,0,1764980818.5829453
126,128,124,125,142,119,127,127,0,1764980818.5930557
126,128,125,126,144,120,126,125,0,1764980818.5930593
125,126,124,126,144,122,124,123,0,1764980818.5930617
124,124,124,126,143,125,122,121,0,1764980818.5930643
123,122,123,126,140,126,121,120,0,1764980818.5930667
124,122,123,126,133,125,120,121,0,1764980818.593069
125,123,122,125,126,123,122,124,0,1764980818.5930712
126,124,122,124,119,121,124,126,0,1764980818.5930808
125,125,122,124,115,120,124,127,0,1764980818.6132176
125,124,123,122,118,121,124,126,0,1764980818.613223
124,123,123,121,123,123,123,124,0,1764980818.6132274
123,121,124,120,127,126,121,122,0,1764980818.6132312
123,121,124,119,131,127,119,121,0,1764980818.6132348
123,122,125,120,134,125,120,121,0,1764980818.6132383
125,124,125,121,130,122,122,123,0,1764980818.6132417
126,126,125,123,128,117,125,125,0,1764980818.6132452
128,128,124,125,127,115,128,126,0,1764980818.6132483
128,128,124,125,126,115,129,126,0,1764980818.6132517
126,126,123,124,125,118,127,125,0,1764980818.613255
125,124,123,123,126,121,125,123,0,1764980818.6132658
123,122,123,122,125,124,122,122,0,1764980818.6132693
123,121,124,122,119,125,120,123,0,1764980818.613273
124,122,124,122,114,123,121,125,0,1764980818.6132765
126,124,124,123,110,120,123,127,0,1764980818.6132798
128,124,124,124,107,117,125,127,0,1764980818.6132832
128,124,124,124,107,117,126,127,0,1764980818.6132867
127,124,124,125,112,119,126,125,0,1764980818.6132903
125,122,124,126,116,124,125,122,0,1764980818.6132936
124,121,125,126,120,128,123,121,0,1764980818.6132967
123,122,125,126,118,130,122,122,0,1764980818.6133
124,123,125,125,113,129,122,123,0,1764980818.613303
125,124,124,125,106,125,123,126,0,1764980818.6133065
127,126,123,125,101,120,125,128,0,1764980818.61331
128,127,122,125,100,118,127,128,0,1764980818.6133134
127,127,122,125,106,118,127,126,0,1764980818.6133175
127,126,123,126,114,122,126,124,0,1764980818.6133327
125,124,124,126,124,127,125,122,0,1764980818.6133363
123,123,124,125,134,131,123,120,0,1764980818.6133423
124,122,124,125,139,132,123,121,0,1764980818.6133604
125,123,124,124,139,131,125,123,0,1764980818.6133845
126,125,123,124,140,128,126,125,0,1764980818.6739938
127,126,122,124,135,125,127,126,0,1764980818.6739986
127,125,122,124,133,124,127,126,0,1764980818.6740012
126,124,122,123,132,125,126,125,0,1764980818.6740034
124,123,123,122,132,128,124,123,0,1764980818.674006
123,122,125,121,129,131,122,122,0,1764980818.6740084
124,122,125,121,124,131,122,122,0,1764980818.674011
124,123,126,121,116,129,122,124,0,1764980818.6740131
126,125,125,122,108,124,123,126,0,1764980818.6740153
127,126,124,123,102,120,125,127,0,1764980818.6740181
128,127,122,123,105,117,125,127,0,1764980818.6740203
127,125,121,124,112,118,124,125,0,1764980818.6740227
125,123,121,124,122,122,122,122,0,1764980818.674025
124,121,122,125,132,126,120,120,0,1764980818.6740272
123,120,123,124,141,128,119,119,0,1764980818.6740296
123,122,124,123,144,127,120,121,0,1764980818.6740453
124,124,125,122,144,125,122,124,0,1764980818.6941857
125,126,125,122,141,122,125,126,0,1764980818.69419
126,127,124,122,139,121,127,128,0,1764980818.6941926
126,126,123,123,138,122,127,127,0,1764980818.6941953
124,124,124,124,138,125,125,124,0,1764980818.6941977
123,122,124,125,137,128,123,122,0,1764980818.6942
122,120,124,126,133,130,122,121,0,1764980818.6942024
122,120,125,126,125,129,122,121,0,1764980818.6942043
124,121,125,125,116,126,123,123,0,1764980818.6942067
126,123,125,124,107,122,125,126,0,1764980818.694209
127,125,124,124,104,118,127,127,0,1764980818.694211
127,125,124,123,107,117,127,127,0,1764980818.6942134
125,124,124,123,114,120,126,125,0,1764980818.6942158
123,123,124,124,119,123,123,122,0,1764980818.6942205
121,121,124,123,123,126,120,121,0,1764980818.694224
121,121,123,123,120,128,119,121,0,1764980818.6942267
123,122,123,123,117,127,120,122,0,1764980818.724518
125,124,123,124,114,124,122,124,0,1764980818.7245233
126,125,123,124,114,121,125,125,0,1764980818.7245262
127,126,123,124,119,121,127,126,0,1764980818.7245286
126,125,124,124,130,122,127,124,0,1764980818.724531
124,124,124,124,140,126,125,123,0,1764980818.7245336
123,122,125,124,146,129,123,122,0,1764980818.7245362
124,121,125,125,148,131,122,122,0,1764980818.7245383
126,121,125,125,145,130,122,123,0,1764980818.7245407
127,123,125,125,139,127,124,125,0,1764980818.724543
129,125,124,125,131,124,127,126,0,1764980818.7245452
129,127,124,125,126,122,128,127,0,1764980818.7245476
128,127,123,125,124,123,127,126,0,1764980818.7245498
126,126,123,125,124,125,125,124,0,1764980818.7245522
124,124,123,125,125,127,122,122,0,1764980818.7245545
123,122,124,124,124,128,119,121,0,1764980818.724563
124,122,124,123,121,127,119,122,0,1764980818.7649968
125,122,124,123,116,124,121,124,0,1764980818.7650015
127,124,124,122,111,120,124,126,0,1764980818.7650044
127,126,124,121,105,119,126,127,0,1764980818.7650065
126,126,124,121,103,118,126,126,0,1764980818.7650092
124,126,124,121,103,120,124,124,0,1764980818.7650118
123,124,124,122,105,124,121,122,0,1764980818.765014
122,123,124,123,105,127,119,121,0,1764980818.7650166
122,122,124,124,107,127,117,121,0,1764980818.7650187
124,123,124,125,107,127,119,122,0,1764980818.765021
126,124,123,126,103,125,122,124,0,1764980818.7650237
128,125,123,126,101,122,124,126,0,1764980818.7650259
128,126,123,126,103,120,125,126,0,1764980818.765028
127,126,124,125,106,123,125,125,0,1764980818.7650304
125,123,124,124,110,127,124,124,0,1764980818.7650328
124,122,124,123,115,130,122,122,0,1764980818.7650406
123,121,124,123,116,131,122,121,0,1764980818.7852268
123,121,124,123,112,129,123,122,0,1764980818.7852302
124,122,124,124,106,125,124,123,0,1764980818.7852325
126,124,124,124,100,121,125,125,0,1764980818.785235
126,125,123,125,97,119,126,126,0,1764980818.7852376
125,125,123,124,98,121,125,125,0,1764980818.7852402
125,124,123,124,104,124,123,124,0,1764980818.7852423
124,122,124,123,113,128,121,122,0,1764980818.7852447
124,121,124,123,122,130,120,122,0,1764980818.785247
124,122,125,123,129,130,121,123,0,1764980818.785249
125,123,124,124,132,126,123,125,0,1764980818.7852514
126,125,123,124,136,122,126,126,0,1764980818.7852535
126,125,122,124,138,119,128,127,0,1764980818.785256
126,125,121,123,144,118,127,126,0,1764980818.785258
125,123,121,123,151,120,126,124,0,1764980818.7852602
124,121,122,123,160,126,123,122,0,1764980818.7852724
123,120,123,123,166,131,121,121,0,1764980818.8155196
124,120,123,123,167,132,121,120,0,1764980818.815523
125,122,124,124,161,132,122,122,0,1764980818.8155298
125,125,125,125,153,129,125,123,0,1764980818.8155324
126,127,125,126,146,126,128,125,0,1764980818.8155348
126,127,125,126,140,124,129,125,0,1764980818.8155372
125,126,125,126,138,125,128,125,0,1764980818.8155391
123,124,126,126,138,127,126,123,0,1764980818.8155415
123,122,126,125,141,129,123,122,0,1764980818.8155437
123,121,127,124,142,129,121,122,0,1764980818.8155544
124,121,127,124,139,127,122,124,0,1764980818.8155565
126,123,126,124,136,123,124,126,0,1764980818.815559
128,124,125,124,133,120,127,128,0,1764980818.8155613
128,124,124,124,130,119,128,128,0,1764980818.8155632
127,124,123,125,132,121,128,126,0,1764980818.8155653
126,123,123,125,137,124,126,124,0,1764980818.815568
124,122,123,126,142,128,123,121,0,1764980818.855962
122,122,123,125,145,129,121,120,0,1764980818.8559668
124,122,124,125,145,129,120,121,0,1764980818.8559692
125,123,124,124,136,127,121,123,0,1764980818.8559718
127,125,124,123,127,124,124,126,0,1764980818.8559742
128,126,124,122,121,120,127,127,0,1764980818.855976
128,127,124,122,99,120,127,127,0,1764980818.855979
127,126,124,122,93,121,127,126,0,1764980818.8559813
126,125,124,122,97,123,125,124,0,1764980818.8559837
125,124,124,123,103,126,123,123,0,1764980818.8559918
125,124,124,123,104,127,122,123,0,1764980818.8559942
126,125,124,124,121,126,123,124,0,1764980818.8559966
126,126,124,125,126,123,124,126,0,1764980818.855999
127,127,124,126,126,120,126,126,0,1764980818.8560011
127,126,123,126,126,118,126,126,0,1764980818.856003
126,124,123,125,128,118,125,124,0,1764980818.8560119
125,122,123,125,132,120,123,123,0,1764980818.876207
123,121,123,125,135,123,121,122,0,1764980818.8762112
123,120,123,125,134,124,119,122,0,1764980818.8762138
124,121,123,125,130,124,119,123,0,1764980818.8762162
125,123,123,125,125,123,122,126,0,1764980818.8762186
127,125,123,125,121,121,124,128,0,1764980818.8762255
128,126,123,124,118,119,126,128,0,1764980818.876228
128,125,124,123,119,120,125,127,0,1764980818.8762302
126,125,124,122,122,121,125,124,0,1764980818.8762357
125,124,124,121,126,124,122,122,0,1764980818.876241
124,122,125,121,126,125,121,121,0,1764980818.876243
124,123,125,121,123,125,120,122,0,1764980818.8762455
124,124,125,121,117,125,122,123,0,1764980818.8762476
126,125,125,122,110,123,124,125,0,1764980818.8762498
126,126,124,122,104,121,125,126,0,1764980818.8762522
125,126,125,122,105,123,124,125,0,1764980818.8762546
124,125,124,122,109,125,124,123,0,1764980818.9065323
124,123,124,122,116,128,122,121,0,1764980818.906537
123,122,124,122,123,131,120,121,0,1764980818.9065392
123,122,124,122,129,131,121,120,0,1764980818.9065418
125,122,123,122,131,129,123,122,0,1764980818.90655
126,123,124,124,132,125,126,125,0,1764980818.9065523
126,124,124,124,133,122,128,127,0,1764980818.9065547
127,124,124,125,135,121,128,127,0,1764980818.9065568
126,124,124,125,139,121,126,126,0,1764980818.9065592
124,123,125,125,144,124,123,124,0,1764980818.9065619
124,122,125,125,146,127,121,122,0,1764980818.906564
124,122,125,126,144,128,120,121,0,1764980818.9065664
124,123,124,126,139,127,121,122,0,1764980818.9065688
126,124,124,126,132,127,123,125,0,1764980818.906571
128,127,123,126,123,125,126,127,0,1764980818.906573
129,127,123,126,117,124,128,128,0,1764980818.9065757
128,126,123,125,118,125,129,127,0,1764980818.9469416
127,125,123,124,122,127,128,125,0,1764980818.9469461
125,123,124,124,127,129,127,122,0,1764980818.9469488
123,122,125,123,131,130,125,120,0,1764980818.9469514
122,122,124,123,131,129,125,120,0,1764980818.9469538
123,124,125,123,127,127,125,122,0,1764980818.946956
124,126,125,123,121,124,126,125,0,1764980818.946958
125,127,124,123,118,122,127,127,0,1764980818.9469604
126,128,124,124,119,121,127,127,0,1764980818.9469626
125,127,125,125,121,122,126,126,0,1764980818.9469647
124,125,125,125,125,124,124,125,0,1764980818.9469671
123,123,125,125,125,126,122,123,0,1764980818.9469693
123,122,125,124,123,126,121,122,0,1764980818.9469717
124,123,125,124,118,123,122,123,0,1764980818.9469738
126,124,125,123,114,120,124,125,0,1764980818.9469793
127,126,125,123,111,117,126,126,0,1764980818.9469826
127,127,124,123,114,117,126,126,0,1764980818.967209
126,126,124,122,118,119,126,125,0,1764980818.967213
125,124,125,122,122,123,124,123,0,1764980818.9672153
124,122,125,121,124,128,122,121,0,1764980818.9672177
124,121,124,121,125,130,121,121,0,1764980818.96722
124,120,123,122,120,131,122,122,0,1764980818.9672222
126,122,122,122,115,128,124,124,0,1764980818.9672244
127,124,121,123,110,123,126,126,0,1764980818.967227
127,124,121,123,107,120,127,127,0,1764980818.9672291
126,124,121,123,108,119,126,126,0,1764980818.9672313
125,123,122,124,112,120,124,125,0,1764980818.9672334
124,121,123,124,116,122,121,123,0,1764980818.9672358
124,121,124,125,121,125,120,122,0,1764980818.967238
125,122,124,125,124,125,121,122,0,1764980818.96724
126,124,125,125,125,123,123,125,0,1764980818.9672422
128,125,125,125,124,121,126,127,0,1764980818.967252
129,127,125,125,124,119,128,128,0,1764980819.0177097
128,127,124,125,124,119,128,127,0,1764980819.017714
126,126,124,125,128,121,126,124,0,1764980819.0177164
124,124,124,125,133,125,124,122,0,1764980819.017719
123,123,124,125,136,128,122,120,0,1764980819.0177212
123,123,124,125,136,129,121,120,0,1764980819.0177236
124,123,124,124,134,128,122,122,0,1764980819.017726
126,125,124,123,129,125,124,125,0,1764980819.0177364
127,126,124,123,125,123,126,126,0,1764980819.0177386
127,126,124,123,125,122,126,127,0,1764980819.0177407
127,124,124,123,128,123,126,126,0,1764980819.017743
126,123,125,124,133,126,124,124,0,1764980819.0177453
125,121,126,124,138,129,123,122,0,1764980819.0177474
124,121,126,123,141,131,121,122,0,1764980819.0177538
125,122,125,123,141,130,121,122,0,1764980819.0177562
126,125,125,124,138,128,123,124,0,1764980819.0177586
127,126,124,124,134,125,125,125,0,1764980819.0379531
127,126,124,124,130,123,125,125,0,1764980819.0379558
125,126,123,124,128,123,126,125,0,1764980819.0379581
124,124,124,124,127,125,125,124,0,1764980819.0379608
123,122,124,124,128,126,123,122,0,1764980819.037963
122,122,124,123,128,127,121,122,0,1764980819.0379653
123,122,123,123,127,125,120,123,0,1764980819.0379674
125,124,123,123,125,122,122,125,0,1764980819.0379696
127,125,122,124,124,118,124,126,0,1764980819.0379717
128,127,121,124,123,115,126,127,0,1764980819.037974
127,126,122,124,123,115,127,126,0,1764980819.037976
125,125,123,125,123,118,125,124,0,1764980819.0379782
123,123,124,125,123,122,122,122,0,1764980819.0379803
122,122,124,125,123,126,120,121,0,1764980819.0379825
122,122,125,125,123,128,119,121,0,1764980819.0379848
124,123,125,125,121,126,121,123,0,1764980819.037987
126,125,125,124,117,123,125,125,0,1764980819.0582016
127,127,125,124,115,121,128,126,0,1764980819.0582063
127,127,125,124,116,120,129,125,0,1764980819.0582087
126,125,124,123,119,122,128,124,0,1764980819.0582108
124,122,124,122,124,126,125,122,0,1764980819.0582135
123,120,123,121,128,129,122,121,0,1764980819.0582154
122,120,123,121,129,130,121,122,0,1764980819.0582178
123,121,123,120,126,129,122,123,0,1764980819.0582232
124,123,123,122,119,126,125,125,0,1764980819.0582259
126,125,124,123,113,124,128,127,0,1764980819.058228
127,127,125,125,111,122,129,128,0,1764980819.0582302
127,126,126,126,114,124,129,127,0,1764980819.0582368
126,124,126,127,119,126,127,125,0,1764980819.0582392
125,122,126,126,125,128,124,124,0,1764980819.0582416
125,122,126,125,130,130,123,122,0,1764980819.0582435
125,122,125,124,130,130,122,121,0,1764980819.0582461
126,123,124,123,127,126,123,123,0,1764980819.1085815
127,125,124,122,123,123,125,125,0,1764980819.108588
128,126,124,122,118,119,126,126,0,1764980819.1085906
127,126,123,122,117,117,126,126,0,1764980819.108593
126,124,123,123,119,118,124,124,0,1764980819.1085951
125,122,123,124,124,121,122,122,0,1764980819.1085975
124,122,123,126,128,124,120,121,0,1764980819.1086001
123,122,123,126,130,127,120,121,0,1764980819.1086054
125,123,123,125,128,126,121,122,0,1764980819.108608
126,124,124,124,125,124,122,124,0,1764980819.1086104
127,125,123,123,121,121,124,126,0,1764980819.1086178
126,124,123,123,120,120,125,126,0,1764980819.10862
125,123,123,123,122,121,124,125,0,1764980819.1086223
124,121,124,123,125,124,123,124,0,1764980819.1086247
123,120,124,123,127,127,122,123,0,1764980819.1086268
123,121,124,123,128,128,122,123,0,1764980819.1086295
125,122,124,122,125,128,124,124,0,1764980819.1288404
126,124,124,122,121,125,126,126,0,1764980819.1288452
127,126,123,121,119,123,128,128,0,1764980819.1288478
127,127,123,122,121,122,128,129,0,1764980819.1288505
126,126,124,122,125,124,127,127,0,1764980819.1288533
125,124,124,122,130,127,125,125,0,1764980819.1288557
124,123,125,123,133,130,122,122,0,1764980819.128858
123,122,125,124,133,132,121,121,0,1764980819.1288607
123,122,125,124,131,131,120,121,0,1764980819.1288629
125,123,125,125,126,128,121,123,0,1764980819.1288695
126,125,124,126,119,125,124,125,0,1764980819.128872
127,126,123,126,114,122,126,127,0,1764980819.1288745
128,126,124,126,115,122,126,127,0,1764980819.1288764
127,125,124,126,118,123,125,126,0,1764980819.1288788
126,124,124,124,120,127,123,123,0,1764980819.1288812
125,123,125,123,121,130,122,121,0,1764980819.1288836
124,122,125,122,121,130,121,121,0,1764980819.1793842
124,123,124,122,115,128,122,122,0,1764980819.179389
124,125,124,122,108,125,124,124,0,1764980819.179392
125,127,124,123,104,120,126,126,0,1764980819.1793945
125,127,124,123,106,118,126,126,0,1764980819.1793969
125,126,123,123,111,118,126,126,0,1764980819.1793993
125,124,123,123,120,120,125,124,0,1764980819.1794014
125,121,124,124,126,122,123,122,0,1764980819.1794038
126,120,125,125,130,124,122,121,0,1764980819.179406
126,121,125,125,130,123,123,122,0,1764980819.179408
127,123,125,125,128,121,125,123,0,1764980819.1794102
127,125,124,124,125,118,127,125,0,1764980819.1794121
127,126,124,123,125,118,128,125,0,1764980819.1794143
126,126,123,123,127,119,127,125,0,1764980819.1794217
125,124,123,123,132,122,125,124,0,1764980819.179424
123,122,124,124,134,126,122,122,0,1764980819.1794271
123,120,124,124,134,127,120,122,0,1764980819.219785
123,120,124,124,132,127,120,122,0,1764980819.21979
124,122,124,124,127,125,121,124,0,1764980819.2197933
125,125,123,124,121,122,124,126,0,1764980819.2197962
126,126,123,124,119,120,125,127,0,1764980819.219799
126,127,122,124,120,120,126,126,0,1764980819.2198024
125,126,122,125,123,121,125,124,0,1764980819.2198048
124,124,122,125,127,124,122,122,0,1764980819.219807
123,123,123,125,130,127,121,120,0,1764980819.2198095
123,122,123,124,129,128,121,120,0,1764980819.219812
125,122,123,124,126,126,122,122,0,1764980819.2198138
126,123,123,123,122,122,125,124,0,1764980819.2198226
127,123,123,122,117,120,127,126,0,1764980819.2198248
128,124,123,121,117,119,127,127,0,1764980819.2198272
127,124,124,121,121,120,126,126,0,1764980819.2198312
125,124,124,122,125,123,124,124,0,1764980819.2198339
124,124,125,124,129,126,122,122,0,1764980819.2400444
124,123,125,125,131,127,121,121,0,1764980819.2400477
124,123,124,126,129,125,122,122,0,1764980819.2400498
125,124,124,127,116,122,124,124,0,1764980819.2400522
126,125,124,127,109,119,126,126,0,1764980819.2400548
127,125,123,126,105,118,127,127,0,1764980819.240057
126,124,123,127,105,119,127,127,0,1764980819.2400596
125,124,124,126,108,122,125,124,0,1764980819.2400625
124,123,124,127,119,126,123,123,0,1764980819.2400649
124,123,125,127,123,130,122,122,0,1764980819.240067
124,123,126,126,124,130,122,122,0,1764980819.2400694
125,125,126,125,121,128,124,124,0,1764980819.2400718
127,126,125,125,118,124,126,126,0,1764980819.2400737
127,127,125,124,115,120,127,127,0,1764980819.240076
127,127,124,123,118,119,126,127,0,1764980819.2400784
125,125,124,123,123,122,124,125,0,1764980819.240081
124,123,124,124,129,126,121,123,0,1764980819.290581
123,121,125,124,134,129,119,122,0,1764980819.2905865
123,121,124,124,136,130,119,121,0,1764980819.2905889
125,122,124,124,134,128,121,122,0,1764980819.2905917
127,124,124,124,128,124,124,124,0,1764980819.290594
129,126,123,124,122,121,126,127,0,1764980819.2905967
128,127,123,124,120,120,127,127,0,1764980819.2906048
127,125,123,123,121,121,127,125,0,1764980819.2906072
125,124,123,123,125,124,125,123,0,1764980819.2906094
123,122,124,122,129,129,122,121,0,1764980819.2906117
122,121,125,121,132,131,121,119,0,1764980819.2906141
123,121,125,121,132,131,121,120,0,1764980819.290616
125,122,124,120,129,129,124,122,0,1764980819.2906184
126,123,123,120,127,127,126,124,0,1764980819.2906206
126,123,122,121,126,125,127,126,0,1764980819.2906227
125,122,122,122,128,125,127,126,0,1764980819.2906296
124,121,122,123,131,127,125,125,0,1764980819.310804
122,120,123,124,132,129,123,123,0,1764980819.3108082
122,121,124,126,132,130,121,123,0,1764980819.3108106
122,122,125,126,128,129,120,124,0,1764980819.310813
124,124,124,126,121,126,121,124,0,1764980819.3108149
126,125,124,125,115,121,123,126,0,1764980819.3108172
127,126,124,124,110,118,125,128,0,1764980819.3108194
127,125,124,123,108,117,125,126,0,1764980819.3108213
126,123,123,123,111,119,124,124,0,1764980819.3108237
125,122,124,122,116,122,123,123,0,1764980819.3108258
124,121,125,122,120,125,122,121,0,1764980819.3108277
123,122,125,122,123,127,122,120,0,1764980819.3108299
123,123,125,123,124,126,122,121,0,1764980819.310832
124,124,124,123,122,123,124,123,0,1764980819.3108342
125,126,123,123,121,122,125,124,0,1764980819.3108363
126,126,122,124,123,121,125,125,0,1764980819.3108385
126,125,121,123,127,123,124,124,0,1764980819.3310664
125,124,122,123,130,126,123,123,0,1764980819.3310711
125,123,123,123,134,129,122,122,0,1764980819.331074
124,123,124,123,135,130,122,122,0,1764980819.3310761
125,124,125,123,133,129,123,123,0,1764980819.3310788
126,126,125,123,128,127,125,126,0,1764980819.3310847
128,127,125,123,125,123,127,127,0,1764980819.331087
129,128,125,124,125,120,127,128,0,1764980819.3310895
128,126,124,124,126,119,126,126,0,1764980819.3310916
127,125,124,125,128,120,124,124,0,1764980819.331094
126,123,124,125,130,122,121,121,0,1764980819.3310997
125,122,123,125,131,125,120,120,0,1764980819.3311021
124,123,124,125,128,125,120,121,0,1764980819.3311043
125,124,125,125,125,124,122,124,0,1764980819.3311067
125,126,125,125,124,122,124,126,0,1764980819.3311088
126,126,125,124,123,121,126,127,0,1764980819.3311172
127,125,125,124,123,120,127,127,0,1764980819.351338
126,123,125,125,123,122,126,125,0,1764980819.3513415
125,121,125,124,124,125,124,122,0,1764980819.3513439
125,119,125,124,124,127,122,121,0,1764980819.3513463
125,119,125,125,123,128,122,122,0,1764980819.351353
125,121,124,125,121,127,123,124,0,1764980819.3513553
126,124,123,125,118,123,125,126,0,1764980819.3513575
126,127,123,124,116,122,127,128,0,1764980819.3513596
126,128,123,124,115,121,127,127,0,1764980819.3513618
125,127,123,123,117,122,126,126,0,1764980819.351364
124,125,123,123,119,124,124,122,0,1764980819.3513658
123,123,124,121,122,128,122,120,0,1764980819.3513715
123,122,124,121,123,130,123,120,0,1764980819.351374
123,122,124,121,122,130,124,121,0,1764980819.3513794
125,124,124,120,117,128,126,123,0,1764980819.3513815
126,125,123,121,115,125,128,126,0,1764980819.3513842
127,126,123,122,113,123,128,126,0,1764980819.401829
126,125,123,123,113,122,126,125,0,1764980819.4018342
125,123,123,124,115,123,124,123,0,1764980819.401837
124,122,123,125,120,126,121,121,0,1764980819.4018397
124,122,124,126,122,127,119,120,0,1764980819.4018419
124,122,124,126,123,126,119,122,0,1764980819.4018443
125,124,125,126,122,124,120,124,0,1764980819.4018462
127,126,125,127,119,120,124,126,0,1764980819.4018486
128,127,125,126,115,118,127,128,0,1764980819.4018507
128,126,125,126,115,118,128,128,0,1764980819.401862
127,125,124,125,118,122,127,126,0,1764980819.4018643
126,124,125,126,123,125,126,124,0,1764980819.4018664
124,122,125,125,129,128,124,122,0,1764980819.4018686
124,122,124,125,134,129,123,122,0,1764980819.4018712
125,123,124,123,134,126,124,124,0,1764980819.4018729
126,125,123,122,132,122,126,126,0,1764980819.401876
126,126,122,121,129,120,128,127,0,1764980819.4220617
126,126,122,120,127,119,128,127,0,1764980819.4220657
125,125,122,121,127,122,127,125,0,1764980819.4220679
124,123,123,122,128,125,125,123,0,1764980819.4220746
123,121,124,124,130,128,122,120,0,1764980819.4220767
123,121,125,125,127,130,121,121,0,1764980819.4220793
124,122,125,125,121,129,122,122,0,1764980819.4220812
126,124,124,124,110,125,124,124,0,1764980819.4220836
127,126,124,123,104,121,125,127,0,1764980819.4220896
128,127,124,122,103,119,126,127,0,1764980819.4220917
127,127,124,121,105,118,125,126,0,1764980819.422094
126,126,125,121,114,120,124,124,0,1764980819.422096
125,123,125,121,125,123,122,122,0,1764980819.4220984
124,122,125,122,133,125,121,122,0,1764980819.4221005
124,121,125,124,136,126,122,122,0,1764980819.4221087
125,122,124,124,135,125,123,124,0,1764980819.4221113
127,124,123,125,133,122,125,127,0,1764980819.4422908
127,125,123,127,131,120,126,127,0,1764980819.4422953
127,126,123,127,130,120,126,126,0,1764980819.442298
126,125,123,126,131,121,123,124,0,1764980819.4423
125,124,123,127,131,123,121,122,0,1764980819.4423027
123,122,123,126,128,126,119,120,0,1764980819.4423053
123,122,124,125,121,126,118,120,0,1764980819.4423075
124,123,124,123,114,124,120,122,0,1764980819.4423099
125,124,124,123,109,123,124,125,0,1764980819.4423156
126,125,124,123,107,122,127,127,0,1764980819.4423177
127,126,124,123,108,123,128,127,0,1764980819.44232
126,125,124,123,115,126,127,126,0,1764980819.4423225
124,122,125,124,122,130,125,125,0,1764980819.4423318
123,121,125,124,127,132,122,123,0,1764980819.4423347
123,120,126,123,129,132,120,122,0,1764980819.4423368
124,121,126,123,129,131,121,123,0,1764980819.44234
125,123,125,123,126,126,123,125,0,1764980819.4927738
127,125,124,124,122,122,125,126,0,1764980819.4927783
127,125,124,124,120,119,126,127,0,1764980819.4927812
127,124,124,124,120,120,125,125,0,1764980819.4927835
125,123,123,125,122,121,124,123,0,1764980819.4927862
125,122,123,124,126,124,122,122,0,1764980819.4927886
124,121,123,124,128,127,120,121,0,1764980819.4927905
125,122,124,123,128,127,121,121,0,1764980819.492793
125,123,123,124,123,123,122,123,0,1764980819.4927955
127,125,123,124,118,120,124,125,0,1764980819.4927974
127,126,123,123,112,116,125,126,0,1764980819.4928
127,125,123,124,108,116,124,126,0,1764980819.4928021
125,124,123,124,108,118,123,125,0,1764980819.4928043
124,122,124,124,111,123,121,123,0,1764980819.4928067
122,121,124,123,111,126,120,122,0,1764980819.492809
122,121,125,123,110,128,121,122,0,1764980819.492816
123,123,124,123,106,127,123,124,0,1764980819.5129979
125,125,124,123,102,123,125,126,0,1764980819.5130024
126,127,123,124,100,120,127,128,0,1764980819.513005
127,128,123,124,103,118,128,128,0,1764980819.5130076
127,127,123,124,112,119,127,127,0,1764980819.51301
125,125,123,124,124,122,126,124,0,1764980819.5130122
124,123,123,124,135,126,123,121,0,1764980819.5130212
123,122,124,124,144,128,122,120,0,1764980819.5130234
124,122,124,125,147,129,122,121,0,1764980819.5130255
125,123,123,125,146,128,123,122,0,1764980819.5130281
127,124,124,125,143,126,125,125,0,1764980819.5130303
128,124,124,125,140,125,127,126,0,1764980819.5130327
127,124,124,125,139,126,128,126,0,1764980819.513035
125,124,124,124,138,128,127,124,0,1764980819.513037
123,123,125,123,137,130,125,123,0,1764980819.5130394
122,122,125,123,133,131,124,122,0,1764980819.513042
123,123,126,122,126,130,123,123,0,1764980819.5534322
124,124,125,121,114,127,124,124,0,1764980819.5534375
126,125,125,122,104,124,125,126,0,1764980819.55344
127,127,124,123,96,121,126,127,0,1764980819.5534427
127,126,123,123,94,120,126,127,0,1764980819.553445
125,125,123,123,96,122,125,125,0,1764980819.5534472
124,123,124,122,102,125,123,122,0,1764980819.5534494
124,123,125,122,110,126,122,120,0,1764980819.5534513
124,122,125,121,117,125,121,121,0,1764980819.5534532
126,124,125,122,120,123,122,123,0,1764980819.5534556
128,125,124,122,123,121,124,125,0,1764980819.5534577
128,126,123,123,125,118,125,127,0,1764980819.55346
127,125,123,123,128,119,126,128,0,1764980819.553462
126,124,122,123,133,122,126,126,0,1764980819.5534644
124,122,122,124,139,125,124,124,0,1764980819.5534663
122,121,123,125,144,127,122,122,0,1764980819.5534878
122,120,124,125,146,127,121,121,0,1764980819.593848
124,121,124,125,143,125,122,122,0,1764980819.5938528
126,123,124,125,137,124,124,125,0,1764980819.5938551
127,125,124,125,129,121,126,127,0,1764980819.5938575
128,126,123,125,122,120,127,127,0,1764980819.5938601
127,125,123,126,118,121,127,126,0,1764980819.5938623
125,123,123,125,114,123,125,123,0,1764980819.5938685
123,122,124,125,111,124,122,121,0,1764980819.593871
123,121,124,124,108,126,120,120,0,1764980819.5938733
123,122,124,123,101,125,120,121,0,1764980819.5938754
124,124,125,122,94,123,122,123,0,1764980819.5938778
126,127,125,122,89,120,124,125,0,1764980819.593882
127,129,124,122,89,119,126,127,0,1764980819.5938845
127,128,124,123,93,120,127,127,0,1764980819.5938866
126,126,124,123,104,123,125,125,0,1764980819.6039982
125,125,123,124,117,126,123,124,0,1764980819.6040018
124,123,123,124,128,130,121,122,0,1764980819.6040044
125,122,124,123,134,130,120,122,0,1764980819.6040068
125,123,123,123,136,128,120,123,0,1764980819.6040092
126,125,123,124,132,124,123,125,0,1764980819.6040115
127,126,123,124,127,120,126,126,0,1764980819.604014
127,125,123,125,123,118,126,126,0,1764980819.604016
126,124,123,125,122,119,125,125,0,1764980819.6040184
125,122,124,125,123,122,124,123,0,1764980819.6040206
125,121,124,125,125,125,123,121,0,1764980819.6040227
124,121,125,125,124,127,122,120,0,1764980819.6040251
125,123,125,125,121,126,123,121,0,1764980819.6040301
126,124,125,125,116,124,125,124,0,1764980819.6040325
127,126,124,125,112,121,127,126,0,1764980819.604035
127,126,125,125,113,119,127,127,0,1764980819.6040368
126,125,124,125,117,120,126,126,0,1764980819.6040392
124,124,124,124,125,122,124,124,0,1764980819.6040418
123,122,123,123,135,125,121,122,0,1764980819.6444256
123,121,121,121,140,128,120,120,0,1764980819.6444302
124,121,121,121,141,129,120,120,0,1764980819.6444325
126,122,121,122,136,128,122,122,0,1764980819.644435
127,123,122,122,127,125,124,124,0,1764980819.6444373
128,125,123,123,116,123,126,126,0,1764980819.644439
127,126,124,124,108,121,126,127,0,1764980819.6444414
125,125,125,124,103,123,125,126,0,1764980819.6444438
124,123,125,124,106,125,124,124,0,1764980819.644446
122,122,125,123,108,127,121,123,0,1764980819.6444557
122,122,125,123,112,127,121,123,0,1764980819.6444583
124,122,125,122,114,125,123,123,0,1764980819.6444602
126,124,124,122,114,121,125,125,0,1764980819.6444623
127,125,124,122,116,119,127,125,0,1764980819.6444647
128,125,124,122,121,119,127,125,0,1764980819.6444666
127,124,123,123,128,123,126,124,0,1764980819.6444693
126,122,123,124,137,127,124,122,0,1764980819.694943
124,121,123,124,144,130,121,121,0,1764980819.6949522
124,120,124,124,147,130,120,121,0,1764980819.6949577
124,122,124,124,145,128,121,122,0,1764980819.6949627
125,123,124,123,141,124,124,124,0,1764980819.6949673
126,125,124,123,136,120,125,126,0,1764980819.6949723
126,126,124,123,133,119,126,127,0,1764980819.694977
125,126,124,123,130,121,125,126,0,1764980819.6949813
124,124,124,123,129,124,123,124,0,1764980819.6949856
123,122,124,124,126,127,121,122,0,1764980819.6949904
122,122,124,125,120,130,120,122,0,1764980819.6949947
122,123,124,125,113,130,121,123,0,1764980819.694999
124,124,123,126,105,127,124,124,0,1764980819.6950037
126,126,124,126,98,124,127,126,0,1764980819.6950083
126,127,124,126,95,122,128,128,0,1764980819.6950128
126,126,123,124,97,121,128,127,0,1764980819.6950362
126,125,124,124,102,122,126,125,0,1764980819.7152395
125,124,124,123,110,126,122,123,0,1764980819.715245
124,122,124,122,117,129,119,121,0,1764980819.71525
124,122,124,122,119,130,118,121,0,1764980819.7152545
126,123,125,122,118,130,119,123,0,1764980819.715259
128,125,125,122,113,127,121,125,0,1764980819.7152636
128,126,125,122,105,124,125,127,0,1764980819.7152681
128,126,125,123,98,123,126,127,0,1764980819.7152724
126,124,125,123,93,122,126,126,0,1764980819.7152767
124,123,124,123,89,124,124,124,0,1764980819.7152812
123,122,124,123,88,126,122,122,0,1764980819.7152858
124,121,124,123,87,125,122,121,0,1764980819.71529
125,122,124,122,85,123,122,122,0,1764980819.715299
126,123,124,122,83,121,124,124,0,1764980819.7153032
128,125,124,121,83,118,127,125,0,1764980819.7153077
128,126,124,121,84,117,128,126,0,1764980819.7153125
127,127,123,122,87,119,126,125,0,1764980819.7355435
126,127,124,123,91,123,125,124,0,1764980819.7355525
125,126,124,124,94,126,122,122,0,1764980819.7355585
124,125,124,124,95,128,120,121,0,1764980819.7355633
125,124,124,124,93,129,119,122,0,1764980819.7355683
126,125,124,123,93,126,121,124,0,1764980819.735573
127,125,123,123,95,122,124,126,0,1764980819.7355778
128,125,123,123,98,120,127,128,0,1764980819.7355824
127,124,123,123,106,121,128,128,0,1764980819.7355871
126,122,123,123,117,123,127,126,0,1764980819.7355917
124,121,123,123,127,125,125,124,0,1764980819.7355962
123,120,124,123,134,128,122,122,0,1764980819.735601
123,121,125,124,139,128,121,122,0,1764980819.7356052
124,123,124,125,139,125,122,123,0,1764980819.7356098
125,125,124,126,134,122,123,125,0,1764980819.7356143
126,128,124,127,128,120,126,127,0,1764980819.7356274
127,128,123,127,125,118,126,126,0,1764980819.7861617
125,126,123,126,124,120,124,125,0,1764980819.7861705
124,124,124,125,125,123,122,123,0,1764980819.7861757
123,122,124,124,129,125,121,121,0,1764980819.7861805
123,120,124,122,131,127,120,120,0,1764980819.7861855
123,121,124,120,128,128,121,122,0,1764980819.78619
124,124,125,120,123,125,123,124,0,1764980819.7861953
125,127,124,120,115,122,125,126,0,1764980819.7862
126,129,124,121,110,121,126,126,0,1764980819.7862058
126,128,124,123,106,119,126,126,0,1764980819.7862105
125,125,124,125,106,120,125,124,0,1764980819.7862222
124,122,124,125,107,123,123,122,0,1764980819.7862275
123,120,124,125,106,125,122,121,0,1764980819.7862322
124,121,124,125,102,125,123,122,0,1764980819.786245
125,122,124,125,96,124,125,124,0,1764980819.7862499
126,124,123,124,84,122,126,125,0,1764980819.786262
127,125,123,123,73,119,127,126,0,1764980819.806442
127,125,124,122,64,118,127,126,0,1764980819.806449
126,124,124,122,58,119,125,124,0,1764980819.8064532
125,122,124,121,75,122,122,122,0,1764980819.8064573
124,121,124,121,95,124,120,121,0,1764980819.8064618
124,122,123,122,109,125,120,122,0,1764980819.8064659
125,123,122,122,116,124,121,124,0,1764980819.80647
126,125,122,123,121,121,124,126,0,1764980819.8064737
126,126,122,124,102,118,126,127,0,1764980819.8064775
126,126,122,124,89,118,127,127,0,1764980819.8064816
125,125,123,124,85,118,126,126,0,1764980819.8064857
125,124,124,125,91,122,124,124,0,1764980819.8064897
125,122,125,125,101,126,122,122,0,1764980819.8064938
125,122,125,125,115,131,121,122,0,1764980819.8064976
126,123,125,125,127,133,121,123,0,1764980819.8065014
127,125,124,126,137,133,123,126,0,1764980819.806514
128,127,124,125,142,132,125,127,0,1764980819.8671062
128,128,124,126,146,131,126,127,0,1764980819.8671207
127,127,123,126,147,131,126,126,0,1764980819.8671267
126,124,123,125,149,133,124,123,0,1764980819.8671322
125,122,124,125,152,135,122,121,0,1764980819.867137
124,121,124,125,152,135,121,121,0,1764980819.8671422
124,120,124,124,150,133,122,122,0,1764980819.8671467
124,121,124,124,148,129,124,124,0,1764980819.8671513
126,123,124,125,143,124,127,127,0,1764980819.867156
126,125,125,125,138,122,129,128,0,1764980819.8671606
126,125,125,126,138,121,129,127,0,1764980819.867165
125,124,125,126,140,121,127,126,0,1764980819.8671699
124,123,125,126,141,124,124,123,0,1764980819.8671741
123,122,125,124,141,124,121,121,0,1764980819.8671787
123,121,125,123,137,124,120,121,0,1764980819.8671832
124,123,124,122,130,121,122,123,0,1764980819.8671894
126,125,124,121,123,118,125,125,0,1764980819.8975668
127,127,123,121,117,115,127,126,0,1764980819.897574
126,127,123,121,115,115,128,125,0,1764980819.897579
126,125,122,121,119,118,126,124,0,1764980819.8975837
124,123,123,121,125,122,123,122,0,1764980819.8975883
123,121,123,121,134,127,121,120,0,1764980819.8975925
123,121,124,121,142,129,120,120,0,1764980819.8975968
124,121,124,122,151,129,121,122,0,1764980819.8976016
125,123,124,122,154,127,125,124,0,1764980819.8976061
126,125,124,124,157,123,128,127,0,1764980819.8976107
126,126,124,125,161,120,129,128,0,1764980819.8976152
126,125,123,125,168,120,129,127,0,1764980819.8976192
125,123,123,126,174,122,127,125,0,1764980819.8976235
123,121,124,126,179,124,124,123,0,1764980819.8976278
123,120,124,126,182,126,122,122,0,1764980819.8976326
124,120,125,126,182,125,122,122,0,1764980819.8976433
125,122,125,126,174,123,123,123,0,1764980819.9178984
126,124,125,126,164,119,125,125,0,1764980819.9179075
127,125,124,125,151,117,126,126,0,1764980819.9179132
126,125,123,125,139,117,125,126,0,1764980819.917918
125,124,122,125,128,119,124,124,0,1764980819.9179227
124,122,122,124,117,122,122,122,0,1764980819.917928
122,122,123,123,106,124,121,121,0,1764980819.9179327
122,122,123,122,94,125,122,121,0,1764980819.9179444
124,123,124,121,80,123,124,124,0,1764980819.9179497
125,124,124,121,66,120,127,126,0,1764980819.9179544
126,126,124,121,56,117,129,128,0,1764980819.9179592
127,127,123,122,53,117,129,128,0,1764980819.917964
127,126,123,123,58,119,127,127,0,1764980819.917969
126,124,123,124,70,122,124,124,0,1764980819.9179738
126,123,124,124,86,126,121,122,0,1764980819.9179785
125,122,125,124,100,128,120,122,0,1764980819.9179964
126,123,125,124,113,127,121,122,0,1764980819.9381828
127,125,125,124,122,125,123,124,0,1764980819.9381955
128,126,125,125,131,124,125,126,0,1764980819.9382076
128,128,124,125,140,125,126,126,0,1764980819.9382138
128,126,123,126,152,127,126,126,0,1764980819.9382193
127,124,123,127,164,129,124,124,0,1764980819.938224
125,123,123,128,175,133,122,123,0,1764980819.9382293
124,122,124,128,181,134,120,122,0,1764980819.938234
124,122,124,127,179,133,121,123,0,1764980819.9382393
124,124,124,128,173,131,123,124,0,1764980819.938244
125,126,124,128,167,128,126,126,0,1764980819.938249
126,127,124,128,160,126,127,127,0,1764980819.938254
125,126,123,127,156,126,128,126,0,1764980819.938259
124,124,123,127,157,127,127,124,0,1764980819.9382637
123,121,123,126,159,130,125,121,0,1764980819.9382684
122,120,123,125,157,130,123,119,0,1764980819.9382846
122,120,123,124,151,129,123,119,0,1764980819.9585185
124,122,124,123,140,126,123,121,0,1764980819.958526
126,124,124,121,128,122,124,123,0,1764980819.9585314
127,126,124,120,116,118,126,125,0,1764980819.9585361
127,127,125,120,108,118,125,126,0,1764980819.9585412
126,126,125,119,105,119,124,125,0,1764980819.9585457
125,124,125,118,105,121,121,123,0,1764980819.9585505
123,123,124,119,106,123,119,122,0,1764980819.9585552
123,122,125,119,107,124,119,122,0,1764980819.9585598
124,123,124,119,107,123,121,124,0,1764980819.9585645
124,124,124,119,106,121,123,126,0,1764980819.9585693
126,125,124,121,104,119,126,127,0,1764980819.9585738
126,126,125,122,106,118,127,128,0,1764980819.9585786
126,124,125,123,112,119,126,126,0,1764980819.9585834
126,123,125,124,120,122,123,124,0,1764980819.958588
125,121,125,125,130,124,120,122,0,1764980819.9585993
125,120,125,126,138,126,119,121,0,1764980820.0091617
125,121,124,125,143,127,120,121,0,1764980820.0091782
126,123,123,126,145,125,122,123,0,1764980820.009185
127,125,123,126,146,123,125,125,0,1764980820.0091913
127,126,123,126,146,123,127,127,0,1764980820.0091968
126,127,123,126,147,123,127,127,0,1764980820.009202
125,126,124,126,150,125,126,125,0,1764980820.009207
124,125,124,126,154,128,124,123,0,1764980820.0092127
123,124,125,124,155,129,123,122,0,1764980820.009218
124,123,124,124,153,129,123,122,0,1764980820.0092232
125,124,123,124,148,126,125,124,0,1764980820.009228
126,125,123,124,140,123,128,126,0,1764980820.009233
127,126,122,124,130,120,129,127,0,1764980820.0092378
127,126,122,123,122,120,129,126,0,1764980820.0092425
125,125,123,123,118,121,128,125,0,1764980820.0092475
124,123,123,121,115,123,125,122,0,1764980820.0092552
123,122,124,121,115,125,122,120,0,1764980820.029473
123,122,124,121,114,127,121,120,0,1764980820.0294793
124,123,125,122,113,126,122,121,0,1764980820.0294838
126,124,124,121,112,124,124,124,0,1764980820.0294883
128,126,124,122,117,123,126,127,0,1764980820.0294929
129,126,124,122,123,122,126,127,0,1764980820.0294974
127,125,123,123,133,124,124,126,0,1764980820.0295124
126,123,123,125,144,126,122,124,0,1764980820.0295174
123,121,125,126,153,129,120,121,0,1764980820.0295217
122,120,124,127,157,131,120,120,0,1764980820.0295262
122,120,124,127,154,130,121,121,0,1764980820.0295305
124,122,124,126,148,128,123,123,0,1764980820.029535
125,124,124,124,141,126,126,126,0,1764980820.0295396
127,126,124,124,135,124,127,128,0,1764980820.0295439
127,127,124,124,133,125,127,128,0,1764980820.029548
126,126,124,124,135,127,126,127,0,1764980820.0295594
126,124,124,124,139,131,124,125,0,1764980820.0497534
124,122,125,124,143,133,123,123,0,1764980820.0497618
124,122,124,124,143,133,122,123,0,1764980820.0497675
125,122,123,124,138,130,123,124,0,1764980820.0497723
126,123,124,124,130,127,125,125,0,1764980820.0497775
126,124,124,124,122,123,125,125,0,1764980820.049782
127,125,124,124,115,121,126,125,0,1764980820.0497866
126,124,125,124,111,122,124,123,0,1764980820.0497916
125,123,125,124,110,124,122,121,0,1764980820.0497963
124,122,125,124,110,126,120,120,0,1764980820.0498009
125,122,124,123,110,126,120,121,0,1764980820.0498059
125,123,124,122,108,125,120,122,0,1764980820.0498102
126,125,124,121,107,121,123,125,0,1764980820.0498147
127,126,123,121,110,118,125,127,0,1764980820.0498195
127,127,122,122,116,117,126,128,0,1764980820.049824
126,127,123,124,125,119,125,126,0,1764980820.0498378
124,125,123,125,137,121,124,124,0,1764980820.1004457
124,123,123,126,148,124,121,122,0,1764980820.1004505
123,121,124,127,154,126,120,121,0,1764980820.1004531
124,121,124,127,154,127,121,122,0,1764980820.1004558
125,122,124,126,149,126,123,124,0,1764980820.1004581
128,124,123,126,142,125,127,126,0,1764980820.1004605
128,126,122,126,136,125,129,127,0,1764980820.1004632
128,126,122,125,132,127,131,127,0,1764980820.1004658
127,125,123,124,133,129,130,126,0,1764980820.100468
125,124,123,124,135,132,128,125,0,1764980820.1004703
122,121,124,123,138,135,125,123,0,1764980820.100473
122,120,124,122,139,134,124,123,0,1764980820.1004748
123,121,124,122,137,132,125,124,0,1764980820.1004775
124,123,124,122,132,128,127,126,0,1764980820.1004798
125,124,124,122,128,124,128,127,0,1764980820.1004815
126,125,124,122,125,122,128,126,0,1764980820.1004906
125,124,124,123,126,122,126,124,0,1764980820.1206787
124,123,124,123,129,123,123,122,0,1764980820.120683
123,122,124,123,132,124,120,121,0,1764980820.1206856
123,122,125,124,133,126,119,121,0,1764980820.1206877
124,122,124,124,133,124,120,122,0,1764980820.1206903
126,123,124,124,129,122,122,125,0,1764980820.1206927
127,125,123,124,124,121,124,126,0,1764980820.120695
128,127,124,124,119,121,125,126,0,1764980820.1206973
128,126,124,122,116,121,125,125,0,1764980820.1207037
126,124,125,122,115,123,124,123,0,1764980820.120706
125,123,125,121,114,125,123,121,0,1764980820.1207085
124,122,126,121,111,126,121,120,0,1764980820.1207106
124,120,125,121,107,124,121,121,0,1764980820.120716
125,120,124,121,102,121,123,124,0,1764980820.1207185
126,122,123,122,97,119,125,126,0,1764980820.1207209
127,122,121,123,98,117,126,127,0,1764980820.1207237
127,122,122,124,103,117,126,127,0,1764980820.1812136
127,122,123,125,114,121,125,125,0,1764980820.1812189
125,120,124,126,128,125,123,122,0,1764980820.181222
124,118,125,126,137,129,122,121,0,1764980820.1812253
125,118,126,126,142,131,121,121,0,1764980820.181228
125,120,126,127,140,129,124,123,0,1764980820.1812308
127,121,125,127,135,125,126,126,0,1764980820.1812341
128,123,124,127,127,122,129,129,0,1764980820.1812403
129,125,124,128,126,122,130,129,0,1764980820.1812427
127,124,124,127,128,123,129,128,0,1764980820.1812449
126,120,124,126,135,127,126,125,0,1764980820.1812472
125,118,123,125,143,131,124,122,0,1764980820.1812537
124,117,123,124,147,131,122,121,0,1764980820.1812558
124,116,123,123,150,130,122,122,0,1764980820.181258
125,118,123,122,149,127,123,124,0,1764980820.1812603
126,122,123,122,147,124,125,126,0,1764980820.1812665
127,124,123,122,145,122,126,127,0,1764980820.2114847
126,123,123,123,146,124,126,126,0,1764980820.2114892
125,124,124,123,148,128,126,124,0,1764980820.2114918
123,122,124,122,150,131,125,121,0,1764980820.2114944
121,121,125,122,149,134,124,121,0,1764980820.2114966
121,123,125,122,146,135,124,121,0,1764980820.2114995
121,126,125,121,140,133,125,123,0,1764980820.2115018
122,128,125,120,129,129,127,124,0,1764980820.2115042
123,131,125,121,118,128,128,125,0,1764980820.2115064
123,131,124,121,106,128,128,124,0,1764980820.2115088
123,128,123,121,94,129,127,122,0,1764980820.2115111
122,125,123,121,86,132,124,121,0,1764980820.2115133
122,125,123,122,86,134,122,121,0,1764980820.2115157
123,124,122,121,89,133,120,122,0,1764980820.2115173
124,125,122,121,98,130,121,124,0,1764980820.211527
126,127,121,121,114,125,123,126,0,1764980820.2115297
127,130,121,122,134,122,124,127,0,1764980820.2317362
128,130,122,122,153,120,124,127,0,1764980820.2317402
127,129,122,124,175,121,123,125,0,1764980820.2317426
127,126,123,123,196,124,121,123,0,1764980820.2317448
125,123,124,124,207,128,119,122,0,1764980820.2317474
125,122,125,124,204,131,119,122,0,1764980820.2317495
125,123,126,124,194,132,121,123,0,1764980820.231752
127,123,126,125,177,134,125,126,0,1764980820.231754
128,125,125,126,158,134,127,128,0,1764980820.2317562
129,123,123,126,142,133,129,129,0,1764980820.2317586
129,123,123,126,134,133,130,128,0,1764980820.231761
128,124,124,127,130,134,128,126,0,1764980820.2317688
126,123,124,126,127,134,126,124,0,1764980820.231771
125,124,126,125,126,133,125,123,0,1764980820.2317731
125,126,127,124,125,132,125,123,0,1764980820.2317755
124,127,125,123,124,129,126,124,0,1764980820.2317781
125,126,123,123,123,125,128,126,0,1764980820.2519426
125,126,122,122,123,122,130,127,0,1764980820.2519581
124,125,123,122,123,123,131,127,0,1764980820.2519603
123,124,124,123,123,125,130,126,0,1764980820.2519627
121,123,125,122,123,127,128,124,0,1764980820.251965
120,122,126,121,123,130,125,122,0,1764980820.251967
120,122,126,119,123,131,124,122,0,1764980820.2519693
120,123,125,118,122,129,124,122,0,1764980820.2519712
120,125,124,117,120,126,126,124,0,1764980820.2519767
122,126,124,116,121,124,127,125,0,1764980820.251979
123,126,123,116,122,125,128,125,0,1764980820.251981
123,124,122,117,122,127,127,124,0,1764980820.2519834
122,122,122,117,123,130,124,122,0,1764980820.2519855
122,123,123,118,125,132,121,120,0,1764980820.2519877
123,123,123,120,125,133,120,120,0,1764980820.251993
126,126,124,121,124,130,120,121,0,1764980820.2519953
128,128,124,122,124,125,122,124,0,1764980820.3023536
130,129,123,124,124,121,124,126,0,1764980820.302358
131,127,122,126,124,120,125,127,0,1764980820.3023608
130,124,122,127,124,120,124,126,0,1764980820.3023632
129,121,122,128,123,122,122,124,0,1764980820.3023653
128,121,123,129,123,125,119,123,0,1764980820.3023677
128,121,124,131,123,123,118,122,0,1764980820.3023732
127,122,125,132,123,119,119,123,0,1764980820.3023753
128,124,125,133,123,115,121,125,0,1764980820.3023775
128,125,124,134,123,112,123,127,0,1764980820.3023798
129,125,123,135,123,112,125,128,0,1764980820.3023818
129,125,123,135,123,120,126,128,0,1764980820.3023841
129,125,124,134,123,128,125,126,0,1764980820.3023865
128,124,124,133,123,135,123,124,0,1764980820.3023915
126,124,124,132,123,140,122,122,0,1764980820.3023942
125,124,125,130,123,141,121,122,0,1764980820.302397
126,124,124,129,123,140,122,124,0,1764980820.342651
126,126,124,127,122,135,124,126,0,1764980820.342655
125,127,124,127,122,131,126,127,0,1764980820.3426576
125,126,123,126,122,127,126,127,0,1764980820.34266
123,124,123,126,122,127,125,126,0,1764980820.342662
121,123,123,126,123,128,123,123,0,1764980820.3426757
120,121,123,125,123,131,122,122,0,1764980820.3426933
120,121,124,124,124,134,122,122,0,1764980820.3426957
121,123,125,122,123,133,124,123,0,1764980820.342698
122,125,125,121,123,130,126,125,0,1764980820.3427002
124,127,125,120,123,125,128,126,0,1764980820.342707
125,127,125,120,122,121,128,126,0,1764980820.3427093
124,125,124,119,119,122,126,125,0,1764980820.3427114
124,123,124,119,113,126,124,124,0,1764980820.3427138
123,120,124,117,105,133,122,121,0,1764980820.342722
124,119,124,117,96,137,121,120,0,1764980820.3427248
125,119,124,116,85,136,122,121,0,1764980820.362887
127,121,123,116,80,129,124,123,0,1764980820.3629036
129,123,122,118,79,120,127,125,0,1764980820.3629065
130,125,123,119,81,111,128,127,0,1764980820.3629086
130,126,124,120,87,107,128,127,0,1764980820.362911
129,124,123,121,95,106,126,125,0,1764980820.3629134
127,123,125,122,104,109,123,122,0,1764980820.3629155
126,122,125,123,112,112,120,121,0,1764980820.3629181
126,120,124,124,120,113,119,121,0,1764980820.3629203
127,121,123,125,125,114,120,123,0,1764980820.3629224
127,124,123,127,130,112,123,126,0,1764980820.3629248
127,126,123,128,138,110,125,127,0,1764980820.362927
127,126,123,128,146,107,126,127,0,1764980820.362929
126,126,123,128,155,105,125,125,0,1764980820.3629313
124,124,124,127,161,102,122,123,0,1764980820.362937
123,123,125,126,162,101,119,121,0,1764980820.3629398
123,123,126,125,154,100,118,120,0,1764980820.3931856
122,124,126,125,136,98,118,121,0,1764980820.3931901
123,125,125,125,113,96,120,123,0,1764980820.393193
124,126,124,125,93,94,122,125,0,1764980820.3931956
125,126,123,125,80,95,123,125,0,1764980820.3931983
124,126,124,125,75,97,123,125,0,1764980820.393201
124,123,124,125,77,104,122,123,0,1764980820.3932037
124,122,124,125,85,110,121,122,0,1764980820.3932064
125,122,125,125,94,114,121,122,0,1764980820.3932087
125,122,125,125,103,116,121,123,0,1764980820.3932114
126,123,124,125,114,115,122,124,0,1764980820.393214
128,125,124,125,128,114,124,126,0,1764980820.3932166
128,126,123,125,144,115,125,126,0,1764980820.393219
127,125,123,125,164,118,125,125,0,1764980820.3932216
125,124,123,126,182,123,124,123,0,1764980820.3932242
124,122,124,128,193,130,123,121,0,1764980820.393227
123,121,125,128,193,134,121,120,0,1764980820.4134054
123,122,126,129,184,135,121,121,0,1764980820.4134097
125,123,126,129,167,134,122,123,0,1764980820.4134123
126,125,125,128,144,129,124,124,0,1764980820.4134147
127,126,124,127,125,125,126,126,0,1764980820.4134166
127,128,124,126,111,123,127,126,0,1764980820.413419
126,127,124,124,101,122,125,124,0,1764980820.4134212
124,124,124,124,93,123,123,122,0,1764980820.4134266
123,122,124,122,88,125,120,121,0,1764980820.413429
123,121,124,121,82,127,119,121,0,1764980820.413431
123,121,124,120,76,125,121,122,0,1764980820.413433
124,123,124,120,69,122,123,124,0,1764980820.4134352
126,126,125,120,67,119,126,126,0,1764980820.4134371
127,128,125,120,69,117,127,126,0,1764980820.4134393
126,127,125,121,76,118,127,126,0,1764980820.413441
125,126,124,121,85,121,125,125,0,1764980820.4134436
125,125,124,121,97,125,122,123,0,1764980820.4537423
124,123,123,121,103,127,120,122,0,1764980820.4537473
125,122,122,121,105,127,121,122,0,1764980820.4537537
126,123,123,122,102,124,122,123,0,1764980820.4537559
127,125,123,122,98,121,125,125,0,1764980820.4537585
127,125,123,123,94,119,125,125,0,1764980820.4537609
127,124,124,124,94,119,124,125,0,1764980820.4537632
126,124,124,124,97,121,123,124,0,1764980820.4537656
126,123,124,125,101,125,121,123,0,1764980820.453768
125,122,123,125,103,126,121,123,0,1764980820.4537702
124,122,124,125,103,126,121,123,0,1764980820.4537725
125,123,124,125,99,124,123,124,0,1764980820.453775
126,125,124,125,92,121,126,125,0,1764980820.4537768
127,125,124,124,87,117,127,126,0,1764980820.4537792
127,125,124,123,83,116,126,125,0,1764980820.4537826
126,123,124,122,80,117,124,124,0,1764980820.4537854
125,122,124,121,75,121,122,122,0,1764980820.4739816
124,121,124,121,70,124,120,121,0,1764980820.4739876
123,121,125,121,62,127,120,121,0,1764980820.4739902
124,123,125,123,55,129,122,123,0,1764980820.4739926
125,126,125,123,50,129,124,126,0,1764980820.4739952
126,128,124,124,55,126,126,129,0,1764980820.4739978
127,128,123,124,66,125,128,129,0,1764980820.4740167
127,127,122,123,88,128,127,128,0,1764980820.4740252
126,127,122,122,113,130,125,125,0,1764980820.474028
125,125,122,122,140,134,124,122,0,1764980820.4740305
124,124,122,121,162,138,123,121,0,1764980820.474033
124,124,123,121,179,139,124,121,0,1764980820.4740357
125,125,123,121,187,137,125,123,0,1764980820.4740381
126,124,123,122,190,134,128,126,0,1764980820.47404
126,124,123,124,190,131,130,127,0,1764980820.4740424
126,124,123,125,188,129,130,127,0,1764980820.4740498
126,123,124,126,183,130,128,126,0,1764980820.504342
125,122,123,126,178,132,126,124,0,1764980820.504347
125,122,123,126,171,133,125,123,0,1764980820.50435
125,122,123,125,159,132,124,122,0,1764980820.5043523
125,123,123,123,144,129,124,123,0,1764980820.5043547
126,125,123,123,128,125,126,125,0,1764980820.5043569
127,127,123,123,115,121,128,127,0,1764980820.5043883
126,127,123,122,107,119,128,126,0,1764980820.5043912
125,125,123,122,107,121,126,125,0,1764980820.5043938
124,123,124,122,113,124,124,123,0,1764980820.5044053
123,123,125,122,121,127,122,122,0,1764980820.5044088
124,122,126,123,130,128,121,122,0,1764980820.5044112
125,124,127,124,134,126,122,123,0,1764980820.5044131
126,127,127,125,136,123,123,125,0,1764980820.5044165
127,128,126,125,135,119,124,126,0,1764980820.504419
126,126,125,125,136,117,124,125,0,1764980820.504423
125,125,124,126,135,117,123,124,0,1764980820.5448806
124,122,124,125,136,120,120,122,0,1764980820.5448852
123,119,124,125,136,123,119,120,0,1764980820.5448878
124,119,123,124,136,126,118,120,0,1764980820.5448902
124,120,123,124,134,127,119,121,0,1764980820.5448973
126,122,124,125,133,125,122,124,0,1764980820.5448997
127,124,123,126,132,124,125,127,0,1764980820.5449018
127,126,124,126,134,122,127,128,0,1764980820.5449076
126,125,125,127,135,121,128,128,0,1764980820.5449102
125,124,125,128,138,123,127,126,0,1764980820.5449123
125,122,125,127,140,125,124,123,0,1764980820.5449147
124,121,124,127,140,126,123,121,0,1764980820.544917
124,121,124,126,135,125,122,121,0,1764980820.5449195
125,123,125,126,128,122,124,122,0,1764980820.5449219
126,126,125,126,120,120,126,124,0,1764980820.5449243
126,127,126,126,113,117,127,126,0,1764980820.5449266
126,127,125,125,110,117,127,127,0,1764980820.5650933
125,126,124,124,111,119,126,126,0,1764980820.5650976
124,123,124,123,115,123,123,124,0,1764980820.5651
122,120,123,122,118,125,120,122,0,1764980820.5651023
122,121,123,121,118,125,118,121,0,1764980820.565105
123,121,124,122,114,123,118,122,0,1764980820.5651073
124,123,125,122,105,121,120,124,0,1764980820.5651097
125,125,125,123,97,118,122,126,0,1764980820.565112
125,125,124,123,90,116,123,126,0,1764980820.5651147
125,123,123,123,87,117,123,125,0,1764980820.565117
124,122,123,123,86,120,122,123,0,1764980820.5651193
123,120,123,122,88,123,121,122,0,1764980820.5651217
123,120,123,122,86,125,119,121,0,1764980820.5651236
124,121,123,121,82,125,119,122,0,1764980820.5651262
126,124,124,122,76,124,120,124,0,1764980820.5651324
127,127,123,122,74,123,123,126,0,1764980820.5651348
128,128,123,123,76,123,125,127,0,1764980820.6154678
128,129,123,123,82,124,126,127,0,1764980820.615472
127,127,124,123,94,127,126,126,0,1764980820.6154747
125,125,123,123,105,131,125,124,0,1764980820.6154776
123,124,124,123,111,133,122,123,0,1764980820.61548
123,123,125,124,109,134,122,123,0,1764980820.6154823
123,124,125,125,99,132,123,124,0,1764980820.615485
125,126,124,126,82,129,124,125,0,1764980820.6154873
125,127,125,126,62,127,125,126,0,1764980820.6154895
126,126,124,126,50,127,126,125,0,1764980820.6154919
125,125,124,125,40,128,126,123,0,1764980820.6154938
125,123,124,125,38,130,124,122,0,1764980820.6154964
124,123,124,125,43,133,122,121,0,1764980820.6154988
124,123,124,125,54,132,122,121,0,1764980820.6155007
125,125,124,125,60,129,122,123,0,1764980820.615503
126,127,124,125,70,124,124,126,0,1764980820.6155093
127,128,124,125,77,120,126,127,0,1764980820.63568
127,127,124,124,86,117,127,127,0,1764980820.6356897
127,126,124,124,97,118,126,125,0,1764980820.6356926
126,125,124,123,109,121,124,123,0,1764980820.6356955
124,123,124,123,121,124,122,121,0,1764980820.6356976
123,122,124,123,128,125,121,120,0,1764980820.6357
124,123,123,122,129,123,121,121,0,1764980820.6357024
125,125,123,124,122,119,123,123,0,1764980820.6357086
126,127,123,125,110,115,125,125,0,1764980820.635711
127,128,123,125,96,112,126,127,0,1764980820.6357133
126,128,123,125,88,111,125,127,0,1764980820.6357155
125,126,124,125,82,113,124,126,0,1764980820.6357179
124,123,125,124,79,116,122,124,0,1764980820.6357203
124,122,125,123,76,120,121,122,0,1764980820.6357224
124,123,126,122,71,122,121,122,0,1764980820.6357248
125,124,126,122,61,121,123,124,0,1764980820.6357272
127,126,125,122,47,119,125,125,0,1764980820.6559584
128,128,125,122,34,117,127,127,0,1764980820.6559634
127,127,124,123,25,115,128,126,0,1764980820.6559663
126,125,124,124,22,117,127,125,0,1764980820.6559684
125,122,123,124,27,119,125,123,0,1764980820.6559708
124,120,123,124,40,122,122,122,0,1764980820.655973
124,120,123,123,56,122,121,122,0,1764980820.6559756
124,122,123,122,69,121,121,123,0,1764980820.6559827
125,125,123,122,81,119,123,125,0,1764980820.6559854
127,128,123,123,90,117,126,127,0,1764980820.6559877
127,129,124,124,98,117,128,128,0,1764980820.6559896
127,128,125,125,107,119,128,126,0,1764980820.6559923
125,126,126,126,117,122,126,124,0,1764980820.6559947
124,122,125,126,125,125,124,122,0,1764980820.6559966
124,120,125,125,132,126,122,121,0,1764980820.655999
124,120,124,125,135,126,123,121,0,1764980820.6560016
125,121,123,124,131,125,125,123,0,1764980820.7063987
127,122,123,125,123,121,127,125,0,1764980820.7064033
127,124,123,125,114,119,128,126,0,1764980820.7064059
126,123,123,125,108,118,127,126,0,1764980820.7064085
125,122,124,126,104,120,125,125,0,1764980820.7064111
124,120,124,126,103,123,122,123,0,1764980820.7064133
123,120,125,125,103,127,119,121,0,1764980820.7064157
123,120,124,125,101,129,119,121,0,1764980820.706418
125,122,123,125,96,128,120,123,0,1764980820.70642
