emg0,emg1,emg2,emg3,emg4,emg5,emg6,emg7,label,timestamp
125,123,123,124,123,125,123,125,0,1764980882.2454853
125,123,123,124,123,125,122,125,0,1764980882.2454967
125,124,123,123,122,125,123,125,0,1764980882.2455034
125,124,123,124,122,124,123,126,0,1764980882.245509
125,125,124,124,123,124,125,126,0,1764980882.2455254
126,125,124,124,124,124,126,125,0,1764980882.2455306
125,124,125,124,125,124,125,124,0,1764980882.2455354
125,124,125,124,126,124,124,123,0,1764980882.2455404
125,124,125,124,126,124,123,123,0,1764980882.2455451
125,124,124,123,124,123,122,122,0,1764980882.2455504
125,124,124,124,122,123,122,122,0,1764980882.2455554
125,124,123,124,121,123,124,123,0,1764980882.2455604
125,125,123,124,120,123,125,123,0,1764980882.2455652
125,124,123,124,120,123,125,123,0,1764980882.2455695
125,124,124,124,121,124,125,123,0,1764980882.2455745
125,124,124,124,123,125,124,123,0,1764980882.2455907
125,123,125,124,124,126,123,123,0,1764980882.2658098
125,122,125,124,125,124,124,124,0,1764980882.2658207
126,123,125,123,125,124,124,124,0,1764980882.2658281
126,123,124,123,125,124,126,125,0,1764980882.2658348
126,123,124,124,124,124,127,126,0,1764980882.2658415
126,123,124,124,123,124,127,125,0,1764980882.2658482
126,124,124,124,124,125,126,125,0,1764980882.2658653
125,123,124,124,124,125,124,124,0,1764980882.2658725
125,122,124,124,124,125,123,124,0,1764980882.2658792
124,122,123,123,124,125,122,123,0,1764980882.2658892
124,122,123,123,123,124,122,123,0,1764980882.265896
125,122,124,123,123,124,123,124,0,1764980882.2659028
125,123,124,124,123,124,124,125,0,1764980882.265909
126,124,124,123,123,124,125,125,0,1764980882.2659156
126,124,124,124,123,124,124,125,0,1764980882.2659225
126,125,124,124,123,125,123,124,0,1764980882.2659302
125,125,124,123,124,126,122,124,0,1764980882.306505
125,124,124,123,124,126,122,123,0,1764980882.306514
125,125,124,123,124,126,122,123,0,1764980882.3065193
125,125,124,124,123,125,124,123,0,1764980882.3065245
125,125,124,124,122,124,125,124,0,1764980882.3065293
125,125,123,124,122,123,126,125,0,1764980882.3065343
125,125,123,124,123,123,126,125,0,1764980882.3065395
125,125,124,124,124,123,125,125,0,1764980882.3065445
125,124,124,123,126,124,124,125,0,1764980882.3065493
125,123,124,123,127,125,123,124,0,1764980882.3065546
125,123,124,124,126,125,122,123,0,1764980882.3065596
125,123,124,123,124,124,123,123,0,1764980882.306564
125,122,123,123,122,123,123,124,0,1764980882.3065689
125,123,123,123,122,122,124,125,0,1764980882.3065739
125,123,123,123,122,122,124,125,0,1764980882.3065784
125,123,123,123,123,123,124,124,0,1764980882.3065867
125,123,124,124,124,125,123,124,0,1764980882.3369079
124,123,124,124,124,126,123,123,0,1764980882.336917
124,124,124,123,123,127,123,123,0,1764980882.3369226
125,124,124,124,122,128,123,124,0,1764980882.336928
125,125,124,124,121,126,124,124,0,1764980882.3369334
126,125,124,124,121,124,125,125,0,1764980882.336939
126,125,124,125,121,123,126,124,0,1764980882.3369439
125,125,124,125,123,122,125,123,0,1764980882.336949
125,125,124,125,123,121,124,123,0,1764980882.3369539
125,124,125,124,124,122,123,123,0,1764980882.3369586
125,123,124,123,125,122,121,122,0,1764980882.3369637
125,123,124,122,125,123,121,123,0,1764980882.3369684
125,123,124,122,124,124,122,124,0,1764980882.3369734
126,123,124,123,124,124,124,125,0,1764980882.3369782
126,123,123,123,123,123,125,125,0,1764980882.3369827
126,124,123,123,123,124,126,125,0,1764980882.3369923
126,124,124,124,123,125,126,125,0,1764980882.3975458
126,124,124,124,124,126,125,125,0,1764980882.397555
125,123,124,124,124,127,125,124,0,1764980882.3975604
125,124,124,125,125,126,125,124,0,1764980882.3975654
126,124,124,125,125,125,125,124,0,1764980882.3975706
126,125,124,125,124,124,125,124,0,1764980882.3975751
126,126,123,125,124,122,125,124,0,1764980882.3975801
126,126,123,125,123,122,125,124,0,1764980882.3975847
126,126,124,125,124,123,124,124,0,1764980882.3975892
126,125,125,124,125,124,124,125,0,1764980882.3975942
125,124,125,124,125,126,123,125,0,1764980882.3976068
125,123,125,124,126,126,123,124,0,1764980882.3976123
125,123,124,123,125,125,122,125,0,1764980882.397617
125,123,124,122,124,124,123,125,0,1764980882.3976226
125,123,123,122,122,123,123,126,0,1764980882.397627
126,123,123,122,121,123,124,125,0,1764980882.3976398
126,124,123,123,122,123,124,125,0,1764980882.4178855
126,123,124,123,122,125,124,124,0,1764980882.4178932
125,123,123,123,122,125,123,123,0,1764980882.4178982
125,124,124,123,123,126,123,123,0,1764980882.4179037
124,124,124,123,124,125,122,123,0,1764980882.4179087
124,124,124,124,123,124,123,124,0,1764980882.417914
125,125,124,124,122,123,124,124,0,1764980882.4179187
125,125,124,124,122,122,125,125,0,1764980882.417924
125,124,124,124,122,121,125,125,0,1764980882.4179287
125,124,124,124,122,122,125,124,0,1764980882.4179392
125,123,124,124,123,123,125,123,0,1764980882.4179447
125,123,124,123,124,124,124,123,0,1764980882.4179497
125,124,124,123,123,124,123,122,0,1764980882.4179552
125,124,123,123,123,123,123,122,0,1764980882.4179604
125,124,123,124,123,122,123,123,0,1764980882.4179654
126,124,123,125,123,121,124,124,0,1764980882.4179773
125,124,123,125,123,121,124,125,0,1764980882.4381497
125,124,123,125,123,122,125,125,0,1764980882.4381576
125,123,124,124,124,124,125,125,0,1764980882.4381628
125,123,124,123,124,125,125,124,0,1764980882.4381673
125,123,125,123,124,127,125,123,0,1764980882.438172
125,123,125,124,124,127,125,123,0,1764980882.4381769
125,124,125,124,124,126,125,123,0,1764980882.4381814
125,124,125,125,123,125,124,124,0,1764980882.438186
125,124,125,125,123,124,124,124,0,1764980882.438191
126,124,125,125,123,123,124,125,0,1764980882.4381957
126,124,125,124,124,123,123,125,0,1764980882.4382002
126,124,124,124,124,124,123,124,0,1764980882.4382052
125,124,124,124,125,125,122,124,0,1764980882.4382102
125,124,124,124,126,126,122,124,0,1764980882.4382155
125,124,124,124,125,125,122,124,0,1764980882.43822
125,125,123,124,124,124,124,124,0,1764980882.4382315
125,125,123,124,123,123,124,125,0,1764980882.4685364
125,124,124,124,123,123,125,124,0,1764980882.468541
125,124,124,124,124,123,125,124,0,1764980882.4685435
125,123,124,124,125,125,124,124,0,1764980882.4685454
126,123,125,125,126,126,124,123,0,1764980882.468548
126,123,125,125,126,126,124,123,0,1764980882.4685507
126,124,125,124,125,126,125,124,0,1764980882.468553
126,125,125,124,123,123,126,125,0,1764980882.468555
126,125,125,124,123,121,126,126,0,1764980882.4685574
126,125,124,124,122,121,126,126,0,1764980882.4685628
125,125,124,123,122,121,124,125,0,1764980882.4685652
125,124,123,123,123,123,123,124,0,1764980882.4685755
124,123,124,122,123,124,121,124,0,1764980882.4685793
124,123,124,122,123,125,121,124,0,1764980882.4685814
125,123,124,122,123,125,121,125,0,1764980882.4685836
125,123,124,123,123,125,122,125,0,1764980882.4685862
125,124,124,124,123,125,123,125,0,1764980882.5089872
126,124,124,125,123,124,124,125,0,1764980882.5089924
126,123,124,125,123,124,124,124,0,1764980882.5089953
125,123,124,124,124,124,124,124,0,1764980882.5089977
124,122,124,124,125,125,123,123,0,1764980882.5090003
124,122,124,124,125,125,123,123,0,1764980882.509006
124,123,124,123,124,125,123,123,0,1764980882.5090084
124,124,124,124,123,125,124,123,0,1764980882.509011
125,125,124,124,122,125,125,124,0,1764980882.509013
126,125,124,124,121,124,126,124,0,1764980882.5090153
126,125,124,124,122,123,126,125,0,1764980882.5090177
126,125,124,124,123,123,125,124,0,1764980882.5090199
126,125,124,125,124,124,124,124,0,1764980882.5090222
126,124,124,124,125,124,123,124,0,1764980882.5090246
126,124,124,124,125,124,122,124,0,1764980882.5090268
126,124,124,124,124,124,122,124,0,1764980882.509033
126,124,124,124,123,123,123,125,0,1764980882.5393553
125,124,123,123,122,121,123,125,0,1764980882.539359
125,124,123,123,122,121,124,125,0,1764980882.539389
125,124,123,123,122,121,124,124,0,1764980882.5393915
125,123,123,123,122,122,124,123,0,1764980882.5393934
124,123,123,122,123,123,123,122,0,1764980882.5393977
124,124,124,123,124,125,122,122,0,1764980882.5393999
125,124,124,123,124,126,123,123,0,1764980882.5394018
126,124,125,124,125,126,124,124,0,1764980882.539405
126,124,125,124,125,125,125,126,0,1764980882.5394168
126,124,125,124,124,125,126,127,0,1764980882.5394194
126,124,125,124,124,125,126,126,0,1764980882.5394218
125,123,124,124,124,125,124,125,0,1764980882.539424
125,123,124,123,125,126,124,124,0,1764980882.5394263
125,123,123,123,125,126,123,123,0,1764980882.5394287
125,124,123,123,125,125,123,123,0,1764980882.5394309
125,124,123,124,124,124,123,123,0,1764980882.559557
125,125,123,124,123,123,124,124,0,1764980882.5595598
125,125,123,124,121,122,125,125,0,1764980882.5595624
125,125,123,124,121,122,125,125,0,1764980882.5595648
125,125,124,125,121,123,126,125,0,1764980882.5595682
125,125,124,124,123,124,125,125,0,1764980882.559571
125,125,124,124,124,125,123,125,0,1764980882.5595737
126,125,125,124,125,126,123,124,0,1764980882.5595767
126,125,125,125,125,125,123,124,0,1764980882.5595794
126,125,125,124,124,124,123,124,0,1764980882.559582
126,124,124,124,123,123,124,124,0,1764980882.5595846
126,124,124,125,122,122,124,124,0,1764980882.559587
125,124,124,125,122,122,124,124,0,1764980882.5595894
125,124,124,125,122,124,123,124,0,1764980882.5595925
125,124,124,124,123,125,122,123,0,1764980882.559595
125,124,124,124,123,126,122,123,0,1764980882.5595994
125,124,124,124,124,127,123,124,0,1764980882.5798156
125,124,124,123,124,126,124,125,0,1764980882.57982
126,124,124,123,123,124,125,125,0,1764980882.5798225
125,125,124,124,123,123,125,126,0,1764980882.5798254
125,124,124,124,124,123,125,125,0,1764980882.5798278
125,123,124,124,124,123,124,124,0,1764980882.5798302
124,123,124,123,124,124,123,123,0,1764980882.5798326
124,123,124,123,124,124,122,122,0,1764980882.5798347
125,124,124,124,123,124,122,122,0,1764980882.5798368
126,124,124,124,122,123,123,122,0,1764980882.5798392
126,125,123,124,122,123,124,123,0,1764980882.5798416
126,125,123,124,122,121,125,124,0,1764980882.5798438
126,124,123,124,124,122,125,124,0,1764980882.579846
126,123,123,124,125,123,124,124,0,1764980882.5798485
125,123,124,124,126,124,123,124,0,1764980882.5798545
125,123,124,124,126,126,122,124,0,1764980882.5798614
125,123,125,123,126,126,122,124,0,1764980882.6303575
125,123,125,123,125,126,123,124,0,1764980882.6303632
125,124,125,123,125,124,124,124,0,1764980882.6303658
126,124,124,123,124,123,125,125,0,1764980882.6303685
126,125,124,124,124,123,126,124,0,1764980882.6303709
126,124,123,124,123,124,126,124,0,1764980882.630373
125,125,123,124,122,125,125,124,0,1764980882.6303751
125,124,123,124,122,126,124,123,0,1764980882.6303775
125,123,124,124,122,126,123,123,0,1764980882.6303794
124,123,123,123,122,124,122,123,0,1764980882.630382
125,123,123,123,122,123,123,123,0,1764980882.6303844
125,124,123,123,122,122,124,124,0,1764980882.630391
125,124,123,123,121,121,124,125,0,1764980882.6303933
126,125,123,124,122,121,124,126,0,1764980882.6303957
125,124,123,123,122,122,124,125,0,1764980882.6303978
125,124,124,123,123,123,124,125,0,1764980882.6304002
125,124,124,123,125,123,123,125,0,1764980882.670712
125,124,125,124,126,123,123,125,0,1764980882.670717
125,123,124,124,125,122,124,125,0,1764980882.6707194
125,124,124,124,124,122,124,125,0,1764980882.6707218
125,124,124,125,123,121,125,126,0,1764980882.6707244
125,124,124,125,123,121,124,125,0,1764980882.6707263
125,124,124,125,123,124,124,125,0,1764980882.670729
125,124,124,124,124,126,123,124,0,1764980882.670731
126,124,124,124,126,127,123,123,0,1764980882.6707373
126,124,124,124,126,128,122,123,0,1764980882.6707397
125,124,123,123,125,128,124,123,0,1764980882.6707418
125,124,123,123,123,126,125,124,0,1764980882.6707437
126,123,123,123,122,125,126,125,0,1764980882.670746
125,123,123,123,121,125,126,125,0,1764980882.6707485
125,123,123,123,121,124,126,124,0,1764980882.6707506
125,123,124,123,123,125,125,123,0,1764980882.670753
125,123,124,123,124,125,123,122,0,1764980882.6909583
125,124,124,122,125,126,123,122,0,1764980882.6909616
125,124,124,122,125,125,123,122,0,1764980882.690967
125,124,124,123,125,125,124,123,0,1764980882.6909697
126,124,124,124,123,125,125,124,0,1764980882.690972
126,125,124,125,122,124,126,125,0,1764980882.6909745
126,125,124,126,123,125,126,125,0,1764980882.6909766
125,125,124,126,124,126,124,125,0,1764980882.690979
125,125,124,126,125,125,123,124,0,1764980882.6909811
125,124,124,125,125,125,121,124,0,1764980882.6909835
125,123,124,124,125,124,121,123,0,1764980882.6909857
125,123,124,123,124,122,122,124,0,1764980882.690988
126,123,123,123,123,121,123,124,0,1764980882.6909904
126,124,123,123,122,121,124,125,0,1764980882.6909926
126,124,123,123,122,121,125,124,0,1764980882.6909947
125,124,123,123,123,123,125,125,0,1764980882.6909974
125,124,123,122,124,125,124,125,0,1764980882.711217
125,124,124,122,124,125,124,125,0,1764980882.7112212
124,124,124,123,124,124,123,125,0,1764980882.711224
125,125,125,124,124,123,123,125,0,1764980882.7112267
125,125,125,124,123,121,124,126,0,1764980882.711229
125,125,124,125,122,119,124,126,0,1764980882.7112315
125,124,124,126,122,120,124,125,0,1764980882.7112336
125,123,124,125,122,121,124,125,0,1764980882.7112358
125,122,123,125,124,123,123,124,0,1764980882.7112384
125,122,123,124,125,125,122,123,0,1764980882.7112408
124,123,123,123,125,127,121,122,0,1764980882.711243
124,123,123,123,124,127,121,123,0,1764980882.7112453
125,124,124,124,123,127,123,123,0,1764980882.7112477
126,125,124,124,121,126,124,124,0,1764980882.7112496
126,126,124,124,121,125,124,125,0,1764980882.711252
126,125,124,124,121,125,124,125,0,1764980882.7112548
126,124,124,123,123,126,123,124,0,1764980882.7616217
126,123,124,122,123,127,123,123,0,1764980882.761626
125,123,123,121,124,127,123,122,0,1764980882.7616289
125,122,123,122,124,127,124,122,0,1764980882.761635
125,123,123,122,124,126,125,123,0,1764980882.761667
125,124,123,123,124,124,127,124,0,1764980882.7616696
125,125,123,124,124,122,127,125,0,1764980882.7616723
125,125,124,124,123,121,127,126,0,1764980882.7616744
125,125,124,124,123,121,126,125,0,1764980882.761677
125,126,125,124,123,122,124,125,0,1764980882.761683
125,125,125,124,124,122,123,124,0,1764980882.7616856
126,125,126,124,123,123,123,124,0,1764980882.7616878
126,124,126,124,123,123,123,124,0,1764980882.7616901
126,124,125,125,123,122,124,125,0,1764980882.7616928
126,124,125,125,122,122,125,125,0,1764980882.761695
126,124,124,125,122,123,125,125,0,1764980882.7617018
125,124,124,125,123,124,124,124,0,1764980882.781871
125,124,124,125,123,126,123,124,0,1764980882.7818747
125,124,124,124,123,127,121,123,0,1764980882.781877
125,123,124,123,124,127,121,122,0,1764980882.7818797
125,123,124,123,123,126,122,123,0,1764980882.781882
125,123,124,122,123,125,124,123,0,1764980882.7818844
125,124,124,123,123,124,126,124,0,1764980882.7818906
125,124,124,123,122,123,126,124,0,1764980882.7818928
125,124,123,123,123,123,126,124,0,1764980882.7818964
125,124,123,123,124,124,125,123,0,1764980882.7818987
125,124,123,123,124,124,123,123,0,1764980882.7819011
125,123,123,123,125,124,122,122,0,1764980882.7819033
125,123,123,123,125,124,122,122,0,1764980882.7819057
126,124,124,124,123,123,122,123,0,1764980882.7819078
126,125,124,125,122,123,123,125,0,1764980882.78191
126,124,124,125,121,123,124,126,0,1764980882.7819126
126,124,124,125,121,124,125,127,0,1764980882.80212
126,124,124,125,122,125,125,126,0,1764980882.802124
126,123,123,124,124,125,124,125,0,1764980882.8021266
125,123,123,124,125,125,123,125,0,1764980882.8021293
125,123,124,124,126,125,122,124,0,1764980882.8021317
125,123,124,123,126,124,122,124,0,1764980882.8021343
125,123,124,123,125,123,123,124,0,1764980882.8021367
125,124,124,123,124,123,124,125,0,1764980882.8021388
125,125,124,123,124,123,124,124,0,1764980882.8021414
125,125,124,123,124,123,124,124,0,1764980882.8021436
125,125,124,123,124,124,124,123,0,1764980882.802146
125,125,124,123,124,125,124,123,0,1764980882.802148
125,124,124,123,124,125,123,123,0,1764980882.8021505
125,124,124,123,123,124,123,122,0,1764980882.8021529
126,125,124,124,122,124,124,123,0,1764980882.8021553
125,125,124,124,122,123,125,124,0,1764980882.8021626
125,124,125,124,123,123,126,125,0,1764980882.85247
125,124,124,124,123,123,126,124,0,1764980882.8524752
125,123,124,124,124,124,125,124,0,1764980882.8524778
125,122,123,124,124,125,124,123,0,1764980882.85248
125,122,123,124,124,126,123,123,0,1764980882.8524826
126,123,124,125,124,126,123,123,0,1764980882.8524852
125,123,124,126,123,125,123,124,0,1764980882.8524873
126,124,125,126,122,124,124,125,0,1764980882.8524897
126,124,125,126,122,122,124,125,0,1764980882.852492
126,124,124,125,122,121,125,125,0,1764980882.8524942
125,123,124,124,123,122,124,125,0,1764980882.8524966
125,123,124,123,124,122,123,124,0,1764980882.852557
125,123,123,123,125,122,123,123,0,1764980882.8525598
125,123,124,123,125,123,122,122,0,1764980882.8525622
125,124,124,123,125,123,122,122,0,1764980882.8525708
126,125,124,123,123,123,123,123,0,1764980882.8525734
126,126,124,123,122,124,124,124,0,1764980882.8727634
126,126,124,123,121,124,125,125,0,1764980882.872768
126,125,124,123,122,125,125,125,0,1764980882.8727705
125,124,123,123,123,125,125,124,0,1764980882.872773
125,123,123,123,124,126,124,124,0,1764980882.8727758
125,123,123,123,125,126,123,123,0,1764980882.872778
124,123,123,123,125,125,123,123,0,1764980882.8727803
124,123,123,124,125,124,123,123,0,1764980882.8727827
124,123,123,124,124,124,124,124,0,1764980882.872789
124,123,123,123,124,124,124,125,0,1764980882.8727913
125,123,124,123,123,125,125,125,0,1764980882.8727937
125,124,124,123,123,126,124,125,0,1764980882.8727958
126,124,124,123,124,126,124,124,0,1764980882.8727982
126,125,125,123,125,125,123,124,0,1764980882.8728006
126,125,125,124,125,125,123,124,0,1764980882.8728027
126,125,125,125,125,124,124,125,0,1764980882.8728054
126,125,124,125,125,122,125,125,0,1764980882.9232883
125,125,124,125,123,122,125,125,0,1764980882.9232929
126,125,124,125,122,122,125,125,0,1764980882.9232955
125,124,124,124,122,122,124,123,0,1764980882.923298
125,124,124,124,122,123,123,122,0,1764980882.9233003
125,124,124,124,122,124,122,121,0,1764980882.923303
125,124,124,124,122,125,122,122,0,1764980882.9233053
125,124,124,124,123,126,123,123,0,1764980882.9233072
126,124,124,124,124,125,124,124,0,1764980882.9233136
126,124,124,124,124,125,125,125,0,1764980882.923316
126,124,124,124,123,124,125,126,0,1764980882.9233184
126,124,124,123,123,124,124,125,0,1764980882.9233205
125,123,124,123,122,125,122,125,0,1764980882.9233232
124,122,123,123,122,125,121,124,0,1764980882.923333
124,122,124,123,122,126,121,124,0,1764980882.923335
124,122,123,123,123,126,122,124,0,1764980882.9233377
124,123,123,124,123,126,123,125,0,1764980882.9434733
125,124,123,124,124,125,124,125,0,1764980882.9434838
125,124,123,125,124,123,125,126,0,1764980882.9434865
125,124,123,124,125,122,124,125,0,1764980882.9434888
125,124,123,124,125,122,123,124,0,1764980882.9434912
125,123,124,123,124,123,122,123,0,1764980882.9434934
125,123,124,123,124,124,121,122,0,1764980882.9434958
125,123,124,123,123,125,121,121,0,1764980882.943498
125,124,124,124,123,124,122,122,0,1764980882.9435
125,124,124,124,123,124,123,124,0,1764980882.9435024
125,124,124,125,122,123,124,124,0,1764980882.9435048
125,124,124,125,122,123,125,125,0,1764980882.943511
125,124,124,124,123,124,125,125,0,1764980882.9435132
125,124,124,124,124,125,125,125,0,1764980882.9435153
125,124,125,124,125,126,125,124,0,1764980882.9435177
126,124,125,124,126,126,125,124,0,1764980882.9435203
126,125,125,124,125,124,125,124,0,1764980883.0039978
126,125,125,124,124,123,125,125,0,1764980883.0040023
126,125,124,124,122,122,125,125,0,1764980883.004005
125,125,124,124,121,122,126,125,0,1764980883.0040073
125,125,123,124,122,123,125,124,0,1764980883.0040097
125,124,123,124,123,123,124,124,0,1764980883.004012
125,124,123,124,124,123,123,123,0,1764980883.0040145
125,124,124,124,126,123,123,122,0,1764980883.0040169
125,123,124,125,126,123,123,123,0,1764980883.00402
125,123,124,125,125,122,124,124,0,1764980883.0040224
126,124,123,125,125,122,124,125,0,1764980883.0040245
126,124,123,125,125,121,124,126,0,1764980883.004032
125,124,123,124,124,121,124,126,0,1764980883.0040343
125,124,123,123,123,122,123,124,0,1764980883.004037
125,124,123,123,122,123,123,123,0,1764980883.004039
125,123,124,122,121,125,123,122,0,1764980883.0040417
125,124,124,122,121,126,123,123,0,1764980883.0242546
125,124,124,122,122,125,124,124,0,1764980883.0242584
125,124,123,123,122,124,124,124,0,1764980883.0242608
126,124,124,124,123,125,125,125,0,1764980883.0242634
126,124,124,124,124,126,125,125,0,1764980883.0242658
126,124,124,124,125,127,125,124,0,1764980883.0242684
125,123,124,124,125,128,124,123,0,1764980883.0242705
125,123,124,124,125,128,123,123,0,1764980883.024273
125,122,124,123,125,127,122,123,0,1764980883.0242755
125,122,124,123,124,124,123,124,0,1764980883.0242777
125,124,124,124,123,122,123,124,0,1764980883.0242798
125,125,123,124,122,121,124,124,0,1764980883.0242825
125,125,124,124,121,121,124,124,0,1764980883.0242846
125,125,124,124,122,122,124,124,0,1764980883.024287
125,125,124,124,122,124,124,124,0,1764980883.0242894
125,124,124,124,124,126,123,123,0,1764980883.024292
125,124,124,123,124,127,123,123,0,1764980883.0343354
125,124,124,123,124,127,123,123,0,1764980883.0343382
125,124,124,123,124,126,123,124,0,1764980883.0343406
125,124,123,123,123,123,123,125,0,1764980883.034343
125,123,123,123,122,122,124,125,0,1764980883.0343451
125,123,123,124,122,121,125,125,0,1764980883.0343475
124,123,123,123,122,121,125,125,0,1764980883.0343497
124,123,123,124,123,122,124,124,0,1764980883.034352
124,124,123,124,124,124,124,123,0,1764980883.0343606
124,125,124,124,124,125,124,124,0,1764980883.0343628
125,125,125,124,124,125,125,124,0,1764980883.0343652
126,125,125,125,124,125,126,125,0,1764980883.0343673
126,125,125,125,123,125,126,125,0,1764980883.0343695
126,125,125,125,123,124,126,125,0,1764980883.0343716
126,125,124,125,123,124,126,124,0,1764980883.034374
126,124,124,125,124,124,124,123,0,1764980883.0343761
126,124,125,124,125,125,122,123,0,1764980883.094889
126,124,125,123,125,125,121,123,0,1764980883.0948951
126,123,125,123,125,124,121,123,0,1764980883.094898
126,123,124,123,124,123,121,124,0,1764980883.0949008
126,124,124,123,123,122,123,124,0,1764980883.094903
126,124,124,124,123,123,125,125,0,1764980883.0949054
126,124,125,125,124,124,126,125,0,1764980883.0949082
125,124,125,124,124,125,125,124,0,1764980883.0949104
125,124,124,124,125,126,125,123,0,1764980883.0949128
125,124,124,123,125,126,123,123,0,1764980883.0949154
125,124,124,123,125,125,122,122,0,1764980883.0949175
125,124,123,123,124,124,122,122,0,1764980883.09492
125,124,123,124,123,123,122,123,0,1764980883.0949259
125,124,124,124,123,122,122,124,0,1764980883.0949285
125,124,124,124,122,123,123,124,0,1764980883.094935
125,123,124,123,123,123,123,124,0,1764980883.0949378
124,123,124,123,123,124,122,124,0,1764980883.115148
124,124,124,123,124,125,122,124,0,1764980883.1151521
125,124,124,123,124,125,122,124,0,1764980883.1151547
125,124,123,123,123,124,123,124,0,1764980883.115157
125,124,123,124,121,124,124,125,0,1764980883.1151595
125,124,123,124,121,124,125,125,0,1764980883.115162
126,124,123,124,122,123,125,125,0,1764980883.115164
125,124,123,124,122,124,125,125,0,1764980883.1151662
125,124,123,124,124,125,124,124,0,1764980883.1151686
125,123,123,124,124,125,123,123,0,1764980883.1151705
125,123,123,124,124,125,123,123,0,1764980883.1151729
125,124,123,124,124,125,123,124,0,1764980883.1151748
125,124,123,124,123,124,123,124,0,1764980883.1151779
125,124,123,124,123,124,124,124,0,1764980883.1151938
125,125,123,123,123,124,125,124,0,1764980883.115205
125,125,123,123,124,125,125,124,0,1764980883.1152296
125,125,123,122,125,126,125,124,0,1764980883.1655936
125,124,123,122,125,126,125,123,0,1764980883.165598
125,124,123,122,124,126,124,123,0,1764980883.1656005
125,124,123,123,124,125,125,123,0,1764980883.1656032
125,124,123,123,124,124,125,124,0,1764980883.1656055
125,124,124,124,123,122,126,125,0,1764980883.165608
125,125,124,125,123,122,127,125,0,1764980883.1656103
126,125,124,125,124,122,126,125,0,1764980883.1656125
126,125,124,124,124,124,125,125,0,1764980883.1656148
126,124,124,123,125,125,124,123,0,1764980883.1656172
126,124,124,123,125,126,123,123,0,1764980883.1656196
126,123,124,122,124,127,122,123,0,1764980883.165622
125,123,124,122,123,126,123,123,0,1764980883.1656241
125,123,124,123,122,124,124,124,0,1764980883.1656265
125,124,124,124,122,123,125,124,0,1764980883.1656287
125,123,124,124,122,123,125,124,0,1764980883.1656363
125,123,124,124,122,123,125,124,0,1764980883.1858675
125,124,125,125,123,124,124,124,0,1764980883.1858718
125,124,125,125,124,125,123,123,0,1764980883.1858747
125,124,125,124,124,124,123,124,0,1764980883.1858773
125,125,125,124,125,123,123,125,0,1764980883.1858795
125,125,125,125,124,122,124,126,0,1764980883.1858819
125,125,124,124,123,120,124,126,0,1764980883.1858845
125,124,123,124,122,120,124,126,0,1764980883.185891
125,124,123,124,123,121,124,126,0,1764980883.185893
124,124,123,124,123,123,123,125,0,1764980883.1858954
124,124,123,124,123,125,122,124,0,1764980883.1858976
124,124,123,124,123,126,122,123,0,1764980883.1859
125,124,123,124,123,126,122,123,0,1764980883.185902
126,125,123,124,122,125,123,124,0,1764980883.1859045
126,125,123,124,121,124,124,124,0,1764980883.1859064
126,125,124,123,122,123,124,125,0,1764980883.185909
126,124,124,123,122,123,124,124,0,1764980883.206076
125,123,124,123,122,124,124,124,0,1764980883.2060804
124,122,124,123,122,125,123,123,0,1764980883.2060874
124,122,124,124,123,125,122,123,0,1764980883.20609
124,123,124,123,123,125,122,124,0,1764980883.2060924
125,123,124,123,122,123,123,125,0,1764980883.2060947
125,124,124,123,121,122,123,125,0,1764980883.2060971
126,125,124,123,122,122,124,125,0,1764980883.2060995
126,125,124,124,123,122,124,124,0,1764980883.2061021
125,125,124,124,124,122,124,123,0,1764980883.2061043
126,124,125,125,126,124,124,122,0,1764980883.2061064
125,123,125,125,127,125,124,122,0,1764980883.2061086
125,123,125,125,126,125,123,122,0,1764980883.206111
125,123,125,124,125,124,124,123,0,1764980883.2061133
125,124,125,124,123,124,124,124,0,1764980883.2061157
125,124,124,123,122,123,124,125,0,1764980883.206118
125,124,124,123,122,123,125,126,0,1764980883.2364004
125,124,124,123,123,124,124,126,0,1764980883.2364044
125,123,123,123,123,124,123,125,0,1764980883.236407
125,123,123,123,124,125,123,124,0,1764980883.2364094
125,123,124,124,125,125,122,124,0,1764980883.2364118
125,124,124,124,125,125,123,124,0,1764980883.2364142
125,124,124,124,125,123,123,124,0,1764980883.2364166
125,125,124,125,124,123,125,125,0,1764980883.2364185
126,125,124,125,124,124,125,125,0,1764980883.2364209
126,125,124,125,124,124,125,124,0,1764980883.2364233
125,124,124,124,123,125,125,123,0,1764980883.2364252
125,124,124,125,123,126,124,123,0,1764980883.2364275
125,124,123,124,123,126,123,123,0,1764980883.2364295
125,124,123,124,123,125,123,123,0,1764980883.2364318
125,124,123,124,123,124,123,124,0,1764980883.2364383
126,124,124,124,123,122,124,125,0,1764980883.2364454
126,124,124,124,123,121,124,125,0,1764980883.2565851
126,124,124,124,124,121,124,124,0,1764980883.2565892
126,124,125,124,125,122,124,124,0,1764980883.2565913
126,124,125,124,125,123,123,124,0,1764980883.2565937
126,124,125,124,125,124,123,123,0,1764980883.2565958
126,124,125,124,124,124,123,124,0,1764980883.2565982
125,124,124,123,123,124,124,125,0,1764980883.2566006
125,125,124,123,122,123,126,125,0,1764980883.2566087
125,124,124,123,121,123,126,126,0,1764980883.2566113
125,124,123,123,121,123,126,125,0,1764980883.256614
125,124,124,124,123,124,126,125,0,1764980883.2566159
125,124,124,124,124,125,125,123,0,1764980883.256618
125,123,124,123,125,125,123,123,0,1764980883.2566204
125,123,124,124,126,126,123,123,0,1764980883.2566223
125,124,124,124,126,126,122,123,0,1764980883.2566247
125,124,124,124,125,125,123,124,0,1764980883.256627
125,124,124,124,124,124,123,125,0,1764980883.2969499
125,125,124,124,124,123,124,125,0,1764980883.2969542
125,125,123,124,123,123,124,125,0,1764980883.2969568
125,124,123,124,123,124,123,124,0,1764980883.296959
125,123,123,124,123,125,122,123,0,1764980883.2969666
125,124,123,123,123,127,121,123,0,1764980883.296969
125,124,123,124,123,127,122,124,0,1764980883.2969713
126,124,124,124,123,126,123,124,0,1764980883.2969747
126,125,124,124,122,124,124,125,0,1764980883.2969768
126,125,124,125,122,124,126,126,0,1764980883.2969792
126,124,124,124,122,122,126,125,0,1764980883.2969818
125,124,124,124,121,122,126,124,0,1764980883.2969837
125,123,124,123,122,123,125,123,0,1764980883.296986
125,123,124,123,123,124,124,123,0,1764980883.2969885
125,123,124,123,124,125,123,123,0,1764980883.2969904
125,123,124,124,125,125,123,124,0,1764980883.296993
125,124,125,124,125,125,124,125,0,1764980883.3272727
125,124,125,124,124,124,124,125,0,1764980883.3272774
125,125,124,124,123,122,124,125,0,1764980883.32728
125,124,124,123,122,122,124,124,0,1764980883.3272824
125,124,124,123,122,122,124,124,0,1764980883.3272848
125,123,123,122,121,123,123,123,0,1764980883.3272872
124,123,123,122,122,124,123,123,0,1764980883.3272896
125,123,123,122,122,125,123,124,0,1764980883.3272922
125,123,123,122,122,125,124,125,0,1764980883.327294
125,124,123,123,122,125,125,125,0,1764980883.3272965
125,124,124,124,123,125,126,125,0,1764980883.3272986
125,124,124,124,123,125,126,124,0,1764980883.3273008
125,125,125,125,124,125,125,124,0,1764980883.3273032
125,124,125,125,125,124,123,124,0,1764980883.3273056
125,123,125,124,126,124,122,124,0,1764980883.3273075
125,123,125,124,126,124,121,125,0,1764980883.3273158
125,123,124,124,125,122,122,125,0,1764980883.367614
125,123,123,123,125,121,123,125,0,1764980883.367619
125,123,123,123,124,121,125,126,0,1764980883.3676217
125,124,123,123,123,121,126,126,0,1764980883.3676243
125,123,124,124,123,123,126,125,0,1764980883.3676264
125,124,124,124,124,125,125,124,0,1764980883.367629
126,124,125,124,123,126,124,124,0,1764980883.3676314
126,125,125,124,123,126,124,124,0,1764980883.3676336
126,126,125,124,124,126,123,124,0,1764980883.367636
126,126,125,124,124,125,124,124,0,1764980883.3676383
126,126,124,123,123,123,124,125,0,1764980883.3676405
126,126,124,124,123,122,124,125,0,1764980883.367643
126,125,124,123,123,122,124,124,0,1764980883.3676455
126,124,124,123,123,123,124,124,0,1764980883.3676474
125,124,124,123,124,123,124,124,0,1764980883.3676527
125,123,124,124,124,124,124,124,0,1764980883.3676553
125,122,124,123,125,125,124,124,0,1764980883.3878696
125,123,124,124,124,125,124,124,0,1764980883.3878741
125,124,124,124,122,124,124,124,0,1764980883.3878767
125,125,124,124,121,124,125,125,0,1764980883.3878791
125,125,124,123,121,123,124,124,0,1764980883.3878815
125,126,123,124,122,123,124,124,0,1764980883.3878837
125,125,123,123,124,124,124,124,0,1764980883.387886
124,124,123,123,126,125,123,123,0,1764980883.3878915
124,123,123,123,126,125,123,123,0,1764980883.3878937
124,123,123,123,125,125,124,123,0,1764980883.387896
125,123,123,123,123,125,124,124,0,1764980883.3878984
125,123,123,123,122,124,125,124,0,1764980883.3879044
125,123,124,123,122,124,125,124,0,1764980883.387907
125,123,124,124,123,125,125,124,0,1764980883.3879092
125,123,124,124,124,125,124,124,0,1764980883.387911
124,123,125,124,125,125,123,124,0,1764980883.387917
124,123,125,125,125,125,123,124,0,1764980883.418255
125,124,124,125,125,124,124,124,0,1764980883.4182599
125,125,124,125,125,123,124,124,0,1764980883.4182622
126,125,124,125,123,122,124,124,0,1764980883.4182649
126,126,124,125,123,121,124,124,0,1764980883.4182673
126,125,124,124,122,120,124,124,0,1764980883.4182694
126,125,124,124,122,121,123,124,0,1764980883.4182718
126,124,124,123,122,121,123,123,0,1764980883.4182782
125,124,125,123,123,123,123,123,0,1764980883.4182804
125,124,124,123,124,125,124,123,0,1764980883.4182827
125,124,124,123,124,126,125,123,0,1764980883.418285
125,124,124,123,124,126,126,124,0,1764980883.4182873
125,124,124,124,125,127,127,125,0,1764980883.4182894
125,124,123,123,124,127,127,125,0,1764980883.4182918
125,123,123,123,124,127,125,125,0,1764980883.418294
125,122,123,123,124,127,124,124,0,1764980883.4182966
125,122,123,122,124,126,122,124,0,1764980883.458588
125,122,123,122,123,125,122,124,0,1764980883.458592
125,122,123,123,123,122,122,124,0,1764980883.4585943
125,123,123,123,123,121,124,125,0,1764980883.4585967
126,124,124,124,122,120,125,125,0,1764980883.458599
126,125,124,125,122,120,126,125,0,1764980883.4586015
125,125,124,125,123,122,126,124,0,1764980883.4586036
125,125,124,125,123,124,125,123,0,1764980883.458606
125,125,125,125,123,127,124,123,0,1764980883.4586084
126,125,125,124,123,127,123,123,0,1764980883.4586108
126,125,125,123,123,127,123,124,0,1764980883.4586127
126,125,125,123,122,125,124,125,0,1764980883.458615
126,125,125,123,122,123,124,125,0,1764980883.458617
125,125,124,123,122,121,124,125,0,1764980883.458619
125,124,124,123,122,122,124,125,0,1764980883.4586215
125,124,124,124,123,123,124,124,0,1764980883.4586236
124,123,124,124,124,125,123,123,0,1764980883.4788277
124,123,123,124,124,126,123,123,0,1764980883.4788322
124,123,123,124,124,125,123,123,0,1764980883.4788344
125,123,123,124,123,125,124,123,0,1764980883.4788368
125,123,123,124,122,123,125,124,0,1764980883.4788392
126,124,124,124,122,122,126,124,0,1764980883.4788415
125,124,124,124,123,123,126,124,0,1764980883.4788487
125,124,124,124,123,124,125,123,0,1764980883.478851
125,124,124,123,125,125,124,123,0,1764980883.4788535
125,124,124,123,125,125,122,123,0,1764980883.4788554
125,124,124,123,125,126,121,123,0,1764980883.4788613
125,124,124,124,124,126,122,124,0,1764980883.4788637
126,124,124,124,123,124,123,125,0,1764980883.4788656
126,124,124,124,122,123,124,125,0,1764980883.478868
126,124,124,124,122,123,125,125,0,1764980883.47887
126,124,124,124,122,123,125,125,0,1764980883.4788759
125,124,124,123,122,123,123,124,0,1764980883.52932
125,124,124,123,123,123,122,123,0,1764980883.5293343
125,124,124,123,124,125,122,123,0,1764980883.529337
124,123,123,123,124,124,122,123,0,1764980883.529339
125,124,123,123,123,123,123,124,0,1764980883.5293417
126,124,123,123,123,122,124,125,0,1764980883.529344
126,125,124,124,122,123,125,125,0,1764980883.5293462
126,124,124,124,121,122,124,125,0,1764980883.5293517
126,124,124,124,122,124,123,124,0,1764980883.5293546
126,123,124,125,123,126,121,124,0,1764980883.5293565
125,123,124,125,123,127,120,124,0,1764980883.529359
124,123,123,125,123,127,121,124,0,1764980883.5293612
125,124,123,124,123,126,123,124,0,1764980883.5293634
125,124,122,124,123,124,124,125,0,1764980883.5293658
125,124,123,124,122,123,125,124,0,1764980883.529368
125,124,123,124,122,122,126,124,0,1764980883.5293703
125,124,124,123,122,123,126,124,0,1764980883.549522
124,124,125,123,124,123,125,124,0,1764980883.549526
125,124,125,123,124,124,124,123,0,1764980883.5495286
125,124,124,122,124,125,124,124,0,1764980883.5495546
125,124,124,122,123,124,123,124,0,1764980883.5495572
126,125,123,122,122,123,123,124,0,1764980883.5495596
126,124,123,123,121,122,123,124,0,1764980883.5495617
126,124,123,124,121,123,124,124,0,1764980883.5495682
126,124,124,125,123,123,123,123,0,1764980883.5495703
126,124,125,126,125,125,123,123,0,1764980883.5495727
125,124,126,126,126,126,123,123,0,1764980883.5495746
126,124,126,125,126,125,123,124,0,1764980883.5495768
126,124,126,124,125,125,124,124,0,1764980883.549583
126,124,125,124,123,124,124,125,0,1764980883.549585
127,124,124,124,122,123,125,126,0,1764980883.5495875
126,124,123,124,121,123,125,126,0,1764980883.5495899
126,124,123,124,122,124,125,125,0,1764980883.5899951
125,124,123,124,123,123,124,125,0,1764980883.5899997
124,123,123,124,123,124,123,124,0,1764980883.590002
124,123,123,123,124,124,122,123,0,1764980883.5900047
124,123,123,123,124,123,122,123,0,1764980883.5900073
125,124,123,123,124,123,123,123,0,1764980883.5900095
125,124,123,124,123,122,124,124,0,1764980883.5900116
126,125,124,124,123,122,125,125,0,1764980883.5900137
126,125,125,125,123,122,126,125,0,1764980883.5900156
126,124,125,125,123,123,125,124,0,1764980883.5900178
126,124,125,125,124,125,124,124,0,1764980883.5900242
126,124,125,124,124,126,124,124,0,1764980883.5900264
125,124,125,124,124,126,124,123,0,1764980883.5900288
125,124,124,123,123,125,124,124,0,1764980883.5900352
125,124,124,123,123,124,125,125,0,1764980883.590042
125,124,124,123,123,123,126,126,0,1764980883.590045
125,124,124,124,123,123,126,126,0,1764980883.61022
125,123,123,123,124,124,125,125,0,1764980883.6102242
125,123,123,123,124,126,124,124,0,1764980883.6102266
125,123,124,123,125,127,123,123,0,1764980883.6102293
125,123,124,123,124,127,122,123,0,1764980883.6102314
125,124,124,124,124,126,122,122,0,1764980883.6102338
126,125,124,124,123,124,123,123,0,1764980883.610236
126,125,124,124,122,123,124,123,0,1764980883.6102383
125,125,124,125,121,123,124,124,0,1764980883.6102405
125,124,123,125,122,122,124,124,0,1764980883.6102426
125,123,123,124,123,123,124,123,0,1764980883.6102445
124,122,123,124,124,124,123,123,0,1764980883.6102467
124,122,123,123,124,124,123,124,0,1764980883.6102488
125,123,123,123,124,124,123,124,0,1764980883.610251
125,124,124,124,123,124,124,125,0,1764980883.6102567
126,126,124,124,123,124,125,126,0,1764980883.6102593
126,126,125,124,123,124,125,126,0,1764980883.6405103
126,126,125,125,123,124,125,125,0,1764980883.640515
126,125,124,125,124,124,124,124,0,1764980883.6405177
125,124,124,124,125,124,122,123,0,1764980883.64052
125,123,124,123,125,124,121,122,0,1764980883.6405225
125,122,123,123,125,124,121,123,0,1764980883.6405249
125,123,123,123,125,123,121,124,0,1764980883.640527
125,123,123,123,123,122,123,124,0,1764980883.6405294
126,123,123,123,123,122,124,125,0,1764980883.6405318
126,124,123,124,123,122,125,126,0,1764980883.640534
126,124,124,124,123,123,125,125,0,1764980883.6405363
126,123,124,124,124,125,124,124,0,1764980883.6405385
125,123,125,124,126,126,124,124,0,1764980883.6405401
125,123,125,124,127,126,124,124,0,1764980883.640547
125,123,125,124,126,126,125,124,0,1764980883.6405497
125,123,125,124,125,124,125,125,0,1764980883.6405523
125,123,124,124,124,122,126,125,0,1764980883.6809173
125,123,124,124,122,122,127,125,0,1764980883.6809218
125,123,124,123,122,122,126,125,0,1764980883.6809247
125,123,124,124,122,123,125,124,0,1764980883.680927
125,123,124,123,123,125,124,124,0,1764980883.6809294
126,123,124,123,124,126,123,124,0,1764980883.6809318
126,124,124,124,124,126,122,124,0,1764980883.680939
126,125,123,124,124,125,122,124,0,1764980883.6809413
126,125,123,124,123,123,123,124,0,1764980883.680944
126,125,123,124,122,122,124,124,0,1764980883.6809464
126,125,123,124,123,122,124,124,0,1764980883.6809487
125,124,124,124,124,123,124,123,0,1764980883.6809509
125,123,124,124,124,125,123,123,0,1764980883.6809533
125,123,124,124,125,126,122,122,0,1764980883.6809556
124,123,124,124,125,127,122,123,0,1764980883.680958
125,124,124,124,125,126,123,123,0,1764980883.6809604
125,125,123,124,123,124,124,124,0,1764980883.7011032
125,125,124,124,123,122,125,125,0,1764980883.7011058
125,126,124,124,123,121,125,125,0,1764980883.7011082
125,125,124,124,123,121,125,125,0,1764980883.7011106
125,124,124,124,124,122,124,124,0,1764980883.7011127
124,123,124,123,125,124,123,123,0,1764980883.7011151
124,123,124,122,125,125,123,124,0,1764980883.7011175
125,123,124,122,125,125,124,124,0,1764980883.7011197
125,124,123,122,124,125,125,125,0,1764980883.7011218
126,124,123,122,123,124,125,126,0,1764980883.7011242
126,124,123,123,122,124,126,126,0,1764980883.7011263
125,124,123,124,121,124,126,125,0,1764980883.7011294
126,124,124,125,121,124,124,125,0,1764980883.701132
125,123,124,125,122,124,122,124,0,1764980883.701134
125,124,124,125,123,125,122,123,0,1764980883.7011364
125,124,125,125,124,126,123,123,0,1764980883.7011387
126,125,125,125,124,125,124,124,0,1764980883.7515547
125,125,124,125,123,125,125,124,0,1764980883.751559
125,125,125,125,122,124,126,124,0,1764980883.7515612
125,124,124,125,122,124,126,124,0,1764980883.7515633
125,123,124,125,122,124,125,124,0,1764980883.7515652
125,123,124,124,123,125,123,123,0,1764980883.7515671
125,123,124,123,124,126,122,123,0,1764980883.7515688
125,123,124,123,124,127,122,123,0,1764980883.7515707
126,123,123,123,124,126,123,124,0,1764980883.7515724
126,124,123,124,124,125,124,124,0,1764980883.7515745
126,125,123,124,123,124,124,125,0,1764980883.7515764
126,124,123,124,123,122,124,124,0,1764980883.751578
126,124,123,124,124,123,124,124,0,1764980883.75158
125,123,124,123,125,123,123,123,0,1764980883.7515817
125,123,124,123,125,124,123,124,0,1764980883.7515833
125,123,124,123,125,124,123,124,0,1764980883.7515855
125,124,124,124,125,124,124,125,0,1764980883.7919526
126,124,124,124,123,122,124,126,0,1764980883.791958
126,124,124,125,122,121,125,126,0,1764980883.7919607
126,124,124,125,121,122,125,125,0,1764980883.791963
126,124,124,124,121,122,124,125,0,1764980883.7919657
125,123,124,124,122,123,123,124,0,1764980883.791968
125,123,124,123,123,124,122,123,0,1764980883.7919703
125,123,123,123,125,125,121,122,0,1764980883.7919726
125,124,123,123,126,124,121,122,0,1764980883.7919745
125,125,124,123,126,125,122,123,0,1764980883.791977
125,125,124,124,125,125,123,124,0,1764980883.7919793
125,126,124,124,124,125,124,124,0,1764980883.7919815
125,125,125,124,123,125,124,125,0,1764980883.7919838
126,124,125,124,123,125,124,125,0,1764980883.7919915
125,124,125,124,123,126,124,125,0,1764980883.791994
125,124,125,124,123,127,123,124,0,1764980883.7919965
125,124,125,124,123,126,124,124,0,1764980883.8223379
125,124,125,124,123,126,124,123,0,1764980883.8223488
125,124,124,124,123,124,125,123,0,1764980883.8223507
125,124,124,123,123,122,126,124,0,1764980883.8223581
125,123,123,123,123,120,125,124,0,1764980883.82236
125,123,123,123,124,121,125,124,0,1764980883.8223622
125,123,124,123,124,121,124,124,0,1764980883.822365
125,123,124,123,125,123,122,124,0,1764980883.8223665
125,124,124,123,125,124,122,124,0,1764980883.8223681
125,125,124,124,125,126,123,124,0,1764980883.82237
126,125,124,124,124,126,124,125,0,1764980883.8223717
126,125,124,125,124,126,125,125,0,1764980883.8223739
126,125,124,126,124,125,126,125,0,1764980883.8223755
126,125,124,126,124,126,125,125,0,1764980883.8223772
125,124,124,125,123,126,124,124,0,1764980883.822379
125,123,124,124,123,125,124,124,0,1764980883.822381
124,123,124,124,123,125,124,124,0,1764980883.8425727
124,123,124,123,123,124,124,123,0,1764980883.8425772
125,124,124,123,123,123,125,123,0,1764980883.84258
125,124,124,123,123,122,125,124,0,1764980883.8425822
125,124,123,123,123,122,126,124,0,1764980883.8425841
125,124,123,124,123,122,125,124,0,1764980883.842586
125,123,124,123,123,124,124,124,0,1764980883.8425882
125,123,123,123,124,125,122,123,0,1764980883.8425899
124,123,123,123,124,125,122,122,0,1764980883.8425918
124,123,123,122,123,125,122,123,0,1764980883.8425934
125,124,123,122,123,125,123,123,0,1764980883.8425953
125,124,123,123,122,123,124,124,0,1764980883.8425975
125,125,124,124,122,122,125,125,0,1764980883.8425992
125,125,124,124,121,123,126,125,0,1764980883.8426013
125,124,124,124,122,124,125,125,0,1764980883.842603
125,124,124,124,124,125,123,125,0,1764980883.8426058
126,124,124,124,125,126,123,125,0,1764980883.8627853
126,124,125,124,126,127,123,125,0,1764980883.8627882
126,125,125,125,126,125,124,125,0,1764980883.8627903
126,125,124,125,124,123,125,125,0,1764980883.8627927
126,126,124,125,123,121,125,125,0,1764980883.862798
125,125,124,125,122,119,125,125,0,1764980883.8628004
125,124,123,125,121,120,124,123,0,1764980883.8628027
125,123,123,124,122,122,123,123,0,1764980883.8628047
124,122,123,124,123,124,122,122,0,1764980883.862807
124,122,124,123,125,126,121,122,0,1764980883.8628094
125,123,124,123,125,127,122,123,0,1764980883.8628116
125,123,124,123,125,127,123,124,0,1764980883.8628137
126,124,125,124,124,126,124,125,0,1764980883.8628206
126,124,125,124,123,125,125,126,0,1764980883.8628228
126,124,125,123,122,124,125,126,0,1764980883.862825
125,123,125,123,122,124,124,125,0,1764980883.8628273
125,123,124,123,123,125,124,124,0,1764980883.9334915
124,123,123,122,122,125,123,124,0,1764980883.9334958
124,123,123,122,122,125,123,123,0,1764980883.9334986
125,124,122,122,122,125,124,123,0,1764980883.933501
125,124,122,123,121,124,125,124,0,1764980883.9335034
126,126,123,124,122,123,126,125,0,1764980883.933506
126,126,124,124,124,122,126,125,0,1764980883.9335134
126,125,124,125,125,122,125,124,0,1764980883.9335158
125,125,124,125,125,123,124,124,0,1764980883.9335182
125,125,125,124,125,123,124,124,0,1764980883.9335203
125,124,125,123,124,124,123,124,0,1764980883.9335227
125,124,124,123,123,124,124,123,0,1764980883.9335253
125,124,124,123,122,124,125,124,0,1764980883.9335275
125,124,124,124,122,124,125,124,0,1764980883.9335299
125,123,124,125,121,123,124,124,0,1764980883.9335322
124,123,124,125,122,124,123,123,0,1764980883.9335344
124,122,124,125,123,124,122,123,0,1764980883.953718
124,122,124,124,125,125,122,123,0,1764980883.9537215
124,122,124,123,125,126,122,123,0,1764980883.9537241
124,123,124,122,125,126,123,123,0,1764980883.9537265
125,124,124,122,125,125,125,124,0,1764980883.953729
125,125,124,122,124,124,126,125,0,1764980883.9537313
125,125,124,123,123,124,127,125,0,1764980883.953741
125,124,124,123,124,124,127,124,0,1764980883.9537437
125,123,124,124,124,123,125,124,0,1764980883.9537458
125,123,124,124,124,124,123,123,0,1764980883.9537482
124,123,124,124,123,125,122,123,0,1764980883.9537506
125,123,124,124,123,125,122,123,0,1764980883.9537525
126,124,124,124,122,123,122,124,0,1764980883.953755
126,124,124,124,121,122,124,125,0,1764980883.953759
126,125,124,124,121,121,125,125,0,1764980883.9537613
126,125,124,124,121,120,125,125,0,1764980883.9537637
126,125,124,124,122,121,124,124,0,1764980883.973948
126,125,124,124,123,123,123,124,0,1764980883.9739518
126,124,124,123,125,126,122,123,0,1764980883.9739542
126,124,125,124,126,128,122,123,0,1764980883.9739566
126,124,124,125,126,128,123,124,0,1764980883.9739592
125,124,124,125,126,126,124,124,0,1764980883.9739614
126,125,123,125,125,125,125,125,0,1764980883.973964
126,125,123,125,124,123,126,125,0,1764980883.9739661
126,125,123,125,124,122,126,124,0,1764980883.9739683
126,124,124,124,124,123,125,123,0,1764980883.9739707
126,124,125,124,124,124,124,123,0,1764980883.973973
125,124,125,124,125,124,124,123,0,1764980883.9739752
125,124,125,124,124,124,123,124,0,1764980883.9739773
125,124,124,124,123,123,124,125,0,1764980883.9739797
125,124,124,124,123,122,125,126,0,1764980883.9739816
125,124,124,124,123,122,125,126,0,1764980883.9739842
125,124,124,124,123,122,125,126,0,1764980883.9941943
125,124,124,124,124,124,125,125,0,1764980883.994198
125,124,124,124,125,126,124,124,0,1764980883.9942002
125,123,124,124,126,127,123,123,0,1764980883.9942026
125,124,124,123,125,127,122,123,0,1764980883.994205
126,124,124,123,124,127,123,124,0,1764980883.9942071
126,124,124,124,123,125,123,124,0,1764980883.9942095
125,124,124,123,121,123,124,124,0,1764980883.9942126
125,123,124,123,122,122,124,124,0,1764980883.994215
125,123,123,123,123,123,124,124,0,1764980883.9942174
124,123,124,123,124,124,123,123,0,1764980883.994223
124,123,124,123,125,125,122,123,0,1764980883.9942255
124,123,124,123,125,126,121,123,0,1764980883.9942276
125,124,125,123,124,126,122,124,0,1764980883.9942298
126,125,125,123,124,126,123,125,0,1764980883.9942322
126,126,125,123,123,125,125,125,0,1764980883.9942343
126,125,124,123,122,124,125,125,0,1764980884.0245032
126,125,124,124,122,124,125,124,0,1764980884.0245073
126,124,123,124,122,125,124,123,0,1764980884.0245097
125,123,123,123,122,126,123,123,0,1764980884.0245123
124,123,123,122,123,126,123,123,0,1764980884.024515
124,123,123,123,122,126,123,123,0,1764980884.024517
124,123,123,123,122,125,124,124,0,1764980884.0245194
125,123,123,124,121,123,125,125,0,1764980884.0245218
125,124,124,124,121,122,126,126,0,1764980884.0245242
126,124,124,125,121,122,126,125,0,1764980884.0245264
125,123,124,125,123,122,124,124,0,1764980884.0245287
126,123,124,124,124,122,122,124,0,1764980884.024531
125,123,124,124,125,124,122,123,0,1764980884.0245333
125,123,124,123,126,124,122,122,0,1764980884.0245357
125,123,124,124,124,124,123,123,0,1764980884.0245378
125,124,124,124,122,123,124,123,0,1764980884.0245411
125,124,124,125,122,123,126,124,0,1764980884.0649633
126,125,124,125,122,123,126,124,0,1764980884.064968
126,124,124,125,122,123,125,125,0,1764980884.0649712
126,124,124,124,123,124,124,124,0,1764980884.0649738
126,124,124,124,125,125,124,124,0,1764980884.0649762
126,124,124,124,126,126,124,124,0,1764980884.0649786
126,124,124,124,126,125,124,124,0,1764980884.0649865
125,125,124,123,125,122,125,124,0,1764980884.0649886
126,125,124,124,125,121,126,125,0,1764980884.0649912
125,124,124,124,124,121,126,125,0,1764980884.0649939
125,124,125,123,124,121,125,125,0,1764980884.0649958
125,123,125,123,125,122,124,125,0,1764980884.0649981
125,123,125,123,126,124,123,124,0,1764980884.0650005
125,123,124,123,126,126,122,124,0,1764980884.0650027
125,123,123,123,125,125,122,123,0,1764980884.0650048
125,124,123,123,123,125,123,124,0,1764980884.0650077
125,124,123,123,122,124,124,125,0,1764980884.085236
125,124,123,123,121,123,125,126,0,1764980884.0852413
125,125,123,123,121,123,124,125,0,1764980884.0852442
125,124,124,123,122,125,124,124,0,1764980884.0852468
125,123,124,123,123,125,123,124,0,1764980884.0852492
125,123,124,124,123,126,122,122,0,1764980884.0852516
125,123,124,124,123,125,121,122,0,1764980884.0852542
125,122,123,124,122,124,122,123,0,1764980884.0852563
125,123,123,124,122,122,123,124,0,1764980884.085259
125,124,123,124,122,121,123,124,0,1764980884.085261
126,124,123,124,123,121,124,125,0,1764980884.0852633
126,124,123,124,125,123,124,125,0,1764980884.0852656
125,124,124,124,126,125,124,124,0,1764980884.0852723
125,123,124,124,127,126,123,124,0,1764980884.0852747
124,123,124,123,127,127,123,124,0,1764980884.0852768
124,123,124,123,125,127,123,124,0,1764980884.0852792
124,124,124,123,124,126,124,125,0,1764980884.1357136
124,125,124,124,123,124,124,125,0,1764980884.1357183
125,125,124,124,123,123,125,124,0,1764980884.135721
125,125,124,124,124,123,124,123,0,1764980884.1357236
124,124,125,123,124,123,124,122,0,1764980884.135726
125,123,125,123,124,124,123,122,0,1764980884.1357284
125,123,125,123,124,124,123,122,0,1764980884.1357307
126,123,125,124,124,125,124,123,0,1764980884.1357327
126,124,124,124,123,125,124,124,0,1764980884.1357353
126,124,124,125,123,124,124,125,0,1764980884.1357374
126,124,123,125,123,124,124,125,0,1764980884.1357398
125,123,122,124,122,124,124,125,0,1764980884.1357453
125,123,123,124,122,124,123,124,0,1764980884.1357527
125,123,124,124,123,124,122,123,0,1764980884.1357553
124,123,124,123,122,124,122,122,0,1764980884.135758
125,123,124,123,122,124,122,123,0,1764980884.1357605
126,124,124,123,122,124,124,124,0,1764980884.1761603
126,124,125,123,122,124,125,125,0,1764980884.1761656
126,125,124,123,122,124,125,126,0,1764980884.1761684
126,124,124,123,123,125,125,126,0,1764980884.1761713
126,124,125,124,124,125,124,126,0,1764980884.1761742
125,124,125,125,125,126,123,125,0,1764980884.1761763
125,124,125,124,125,127,122,124,0,1764980884.1761792
125,124,125,125,125,127,123,124,0,1764980884.1761816
125,125,125,125,125,126,124,125,0,1764980884.1761842
125,125,124,125,124,125,125,124,0,1764980884.1761866
125,125,124,124,124,124,126,125,0,1764980884.1761894
125,124,123,125,124,123,126,125,0,1764980884.1761916
125,124,123,125,124,124,126,124,0,1764980884.1761937
125,123,124,124,124,125,125,124,0,1764980884.176196
125,123,124,124,125,126,124,123,0,1764980884.1761985
125,123,125,124,124,127,123,123,0,1764980884.1762073
125,124,125,123,123,127,123,123,0,1764980884.1963594
125,124,124,123,122,125,124,123,0,1764980884.1963766
125,125,124,123,121,123,125,124,0,1764980884.1963804
125,125,124,124,121,123,125,125,0,1764980884.1963828
125,125,124,124,122,122,125,125,0,1764980884.196385
125,125,124,124,122,122,124,124,0,1764980884.1963904
124,125,124,124,123,122,123,124,0,1764980884.1963928
124,124,124,123,124,123,122,124,0,1764980884.196395
125,123,124,123,124,123,122,124,0,1764980884.1963973
125,123,124,123,124,123,123,124,0,1764980884.1963995
125,124,124,123,124,122,124,125,0,1764980884.1964016
126,124,124,124,124,121,125,124,0,1764980884.196404
125,124,124,124,124,122,126,124,0,1764980884.1964061
125,124,124,124,124,122,125,123,0,1764980884.1964083
125,123,123,124,125,123,124,123,0,1764980884.1964104
125,122,123,124,125,125,123,123,0,1764980884.1964142
124,122,123,123,125,125,122,123,0,1764980884.2467723
124,122,123,123,124,125,122,124,0,1764980884.246777
125,123,123,124,123,124,123,124,0,1764980884.2467797
125,125,124,124,122,123,125,125,0,1764980884.2467823
125,125,124,125,121,123,126,125,0,1764980884.2467844
126,125,124,125,122,124,126,125,0,1764980884.2467868
126,125,125,124,123,124,125,124,0,1764980884.24679
126,124,124,124,124,125,123,124,0,1764980884.246792
125,123,124,123,125,125,122,124,0,1764980884.2467942
125,123,124,122,125,125,122,124,0,1764980884.2467966
125,123,124,123,124,123,124,125,0,1764980884.2467983
125,123,123,123,123,123,125,125,0,1764980884.2468016
125,123,124,123,122,123,126,125,0,1764980884.2468035
125,124,124,124,122,123,126,124,0,1764980884.2468052
125,124,124,125,122,124,124,123,0,1764980884.246807
125,124,125,125,123,125,122,123,0,1764980884.2468426
125,124,124,124,124,126,121,122,0,1764980884.2468455
125,124,125,124,124,126,122,123,0,1764980884.246852
125,124,124,124,124,125,123,124,0,1764980884.246854
125,124,124,124,123,124,124,124,0,1764980884.2468598
125,124,123,124,122,123,125,125,0,1764980884.2468624
125,124,124,124,122,123,126,125,0,1764980884.2468917
125,124,123,124,121,124,125,125,0,1764980884.2468946
125,124,124,124,122,124,124,124,0,1764980884.246897
125,124,124,123,123,125,123,125,0,1764980884.246899
125,124,125,123,123,125,122,124,0,1764980884.2469015
125,124,125,123,124,125,122,124,0,1764980884.2469037
126,124,125,123,124,124,123,125,0,1764980884.2469058
126,124,125,124,124,122,125,124,0,1764980884.2469082
126,124,125,125,124,122,126,123,0,1764980884.24691
126,123,124,125,124,122,125,123,0,1764980884.2469125
125,123,124,125,125,124,124,122,0,1764980884.24692
125,123,124,124,125,126,123,121,0,1764980884.2873392
125,123,124,124,124,127,123,122,0,1764980884.2873511
125,123,124,123,124,127,123,123,0,1764980884.2873545
125,124,124,123,122,126,124,124,0,1764980884.2873569
126,125,124,123,122,124,125,125,0,1764980884.2873592
126,125,124,123,122,123,126,127,0,1764980884.2873616
126,124,124,123,122,122,126,127,0,1764980884.2873697
126,124,124,124,123,122,126,126,0,1764980884.287372
125,123,124,124,124,124,124,126,0,1764980884.2873743
125,123,124,125,124,126,123,124,0,1764980884.2873766
124,123,123,124,125,126,123,123,0,1764980884.287379
125,124,124,125,124,126,123,123,0,1764980884.287381
125,124,123,124,123,124,123,124,0,1764980884.287383
125,124,123,124,123,122,124,124,0,1764980884.2873852
125,125,123,123,123,122,125,125,0,1764980884.2873874
125,124,124,123,123,121,124,124,0,1764980884.2873974
125,124,123,123,123,122,124,124,0,1764980884.3176117
125,124,123,123,124,123,123,123,0,1764980884.317617
124,124,123,123,124,124,123,123,0,1764980884.3176267
125,125,124,123,124,123,123,124,0,1764980884.317629
125,125,124,123,123,122,124,124,0,1764980884.3176317
126,124,123,123,123,122,125,124,0,1764980884.3176363
125,124,124,123,123,122,126,125,0,1764980884.3176389
125,123,123,123,123,123,126,124,0,1764980884.3176415
125,122,123,123,123,124,125,124,0,1764980884.317644
125,122,123,123,124,125,123,123,0,1764980884.317646
125,123,124,123,123,126,122,123,0,1764980884.3176486
125,123,124,124,123,126,122,123,0,1764980884.317651
125,124,124,124,122,125,122,124,0,1764980884.3176532
125,124,124,124,122,124,123,125,0,1764980884.3176556
126,124,124,124,122,123,124,125,0,1764980884.3176582
126,124,124,123,122,123,124,125,0,1764980884.317661
125,123,124,123,123,124,123,125,0,1764980884.3580706
125,123,124,122,124,125,123,124,0,1764980884.3580801
125,123,125,122,125,126,122,123,0,1764980884.358086
125,123,124,124,125,126,122,123,0,1764980884.3580916
125,124,125,124,124,125,122,123,0,1764980884.3580968
125,125,124,125,124,124,123,124,0,1764980884.3581023
126,126,124,126,124,123,124,125,0,1764980884.358107
126,126,125,126,124,123,124,126,0,1764980884.358112
125,125,124,125,124,124,124,125,0,1764980884.3581169
125,124,124,124,125,124,124,125,0,1764980884.3581214
125,124,124,124,125,125,124,124,0,1764980884.3581262
125,123,124,124,125,126,124,124,0,1764980884.3581307
125,123,124,123,124,125,124,124,0,1764980884.3581357
125,124,124,124,123,124,126,124,0,1764980884.3581407
126,124,124,124,122,123,126,125,0,1764980884.3581452
125,124,123,124,121,122,126,125,0,1764980884.358154
125,124,123,124,120,122,126,124,0,1764980884.4086235
125,123,123,124,121,124,125,124,0,1764980884.4086292
125,123,124,123,123,125,123,124,0,1764980884.4086323
125,123,124,123,123,125,122,123,0,1764980884.408635
125,123,124,123,124,125,122,123,0,1764980884.4086373
125,123,124,124,125,124,122,124,0,1764980884.4086394
125,124,125,124,125,122,123,124,0,1764980884.4086418
125,123,124,124,124,121,123,124,0,1764980884.4086442
125,124,124,124,123,121,123,124,0,1764980884.408646
125,124,124,124,123,122,123,123,0,1764980884.4086487
125,123,124,124,123,123,122,122,0,1764980884.408651
125,123,123,123,124,125,122,122,0,1764980884.408663
125,124,124,123,124,127,122,122,0,1764980884.4086654
125,124,124,123,124,127,123,124,0,1764980884.4086676
126,125,124,123,124,126,125,125,0,1764980884.40867
126,125,124,124,123,125,125,126,0,1764980884.4086728
126,124,124,124,122,125,126,127,0,1764980884.4288483
126,123,124,124,122,124,125,126,0,1764980884.4288528
125,122,123,124,122,125,124,126,0,1764980884.428855
124,121,123,123,123,125,124,125,0,1764980884.4288576
124,122,124,123,123,125,124,124,0,1764980884.42886
124,123,123,123,122,124,124,123,0,1764980884.4288628
125,124,123,123,122,122,124,123,0,1764980884.4288704
126,125,124,123,122,121,126,124,0,1764980884.4288723
126,125,125,124,123,121,126,124,0,1764980884.4288747
126,125,125,125,124,121,126,124,0,1764980884.428877
125,124,125,125,125,123,125,124,0,1764980884.4288793
125,123,125,125,125,125,124,123,0,1764980884.4288816
125,123,124,124,125,126,123,123,0,1764980884.4288838
125,124,124,124,125,126,122,123,0,1764980884.4288862
125,124,124,124,124,126,123,124,0,1764980884.4288886
126,125,123,124,123,125,124,125,0,1764980884.4288912
126,126,123,124,123,124,124,126,0,1764980884.4490607
126,125,123,124,123,123,124,126,0,1764980884.449065
126,124,123,124,123,124,123,125,0,1764980884.4490676
125,124,124,124,123,125,123,124,0,1764980884.4490695
125,124,124,123,123,125,123,123,0,1764980884.449072
125,123,124,123,124,124,123,123,0,1764980884.4490783
125,124,124,123,124,124,124,123,0,1764980884.4490805
126,124,124,124,124,122,124,124,0,1764980884.4490829
125,124,124,124,123,122,124,124,0,1764980884.4490852
125,124,124,124,123,122,124,125,0,1764980884.4490871
125,124,124,124,123,123,124,124,0,1764980884.4490895
124,124,124,124,123,124,123,123,0,1764980884.4490917
124,124,124,123,123,125,123,123,0,1764980884.4490938
125,124,124,123,123,125,123,123,0,1764980884.4490962
125,124,124,123,123,124,124,123,0,1764980884.4490983
126,124,124,124,123,124,124,124,0,1764980884.4491005
126,124,124,124,122,124,125,125,0,1764980884.4692702
126,124,124,124,122,124,126,124,0,1764980884.4692736
126,123,123,124,122,124,125,124,0,1764980884.4692793
126,122,124,123,123,125,124,123,0,1764980884.4692814
125,122,124,123,124,125,123,123,0,1764980884.4692838
125,123,124,122,125,125,121,123,0,1764980884.4692862
125,123,124,123,125,124,121,123,0,1764980884.4692914
125,124,125,123,125,124,122,124,0,1764980884.4692938
125,125,124,124,123,123,123,125,0,1764980884.4692962
125,125,124,125,122,123,124,125,0,1764980884.4692981
125,125,124,125,122,124,125,125,0,1764980884.469304
125,124,124,125,123,125,124,125,0,1764980884.4693065
125,123,124,124,124,126,123,124,0,1764980884.4693084
125,123,124,123,124,126,122,124,0,1764980884.4693108
126,123,124,122,124,126,122,124,0,1764980884.469313
125,123,123,122,124,124,123,124,0,1764980884.4693158
126,124,123,122,124,123,125,125,0,1764980884.51964
126,125,123,123,124,122,126,125,0,1764980884.519645
125,126,123,124,124,122,126,125,0,1764980884.5196476
125,125,123,124,125,122,125,124,0,1764980884.51965
125,125,124,124,125,123,123,123,0,1764980884.5196526
125,124,124,125,125,124,122,123,0,1764980884.5196607
125,124,124,125,124,124,121,122,0,1764980884.519663
125,124,124,125,122,124,122,122,0,1764980884.5196655
125,124,124,125,121,123,124,123,0,1764980884.5196729
125,125,124,125,120,122,125,124,0,1764980884.5196753
125,125,124,124,120,121,126,124,0,1764980884.5196774
125,124,124,124,121,122,126,124,0,1764980884.519684
125,123,124,123,123,124,124,124,0,1764980884.5196865
125,123,124,123,124,125,123,124,0,1764980884.5196886
125,122,124,123,124,126,121,123,0,1764980884.5196912
125,122,124,123,124,126,121,123,0,1764980884.5196939
125,123,124,124,124,126,122,124,0,1764980884.5398943
126,124,124,124,123,124,123,124,0,1764980884.5398986
126,124,124,124,123,122,125,124,0,1764980884.539901
126,124,124,124,123,121,125,124,0,1764980884.5399032
125,124,123,124,123,122,125,124,0,1764980884.5399058
125,123,123,123,123,123,124,123,0,1764980884.5399082
124,122,122,123,123,124,124,123,0,1764980884.53991
124,123,123,123,123,126,123,124,0,1764980884.539913
124,123,123,123,124,125,123,124,0,1764980884.539915
125,124,123,123,123,124,124,125,0,1764980884.5399172
125,124,124,124,123,123,125,125,0,1764980884.5399196
125,125,125,124,124,122,125,126,0,1764980884.5399218
125,124,125,125,124,123,125,125,0,1764980884.539924
126,124,125,125,125,124,125,125,0,1764980884.5399263
126,124,126,125,126,125,125,124,0,1764980884.5399287
126,124,126,124,125,126,124,124,0,1764980884.5399358
126,124,125,124,124,126,123,124,0,1764980884.5803456
126,125,125,124,123,125,123,124,0,1764980884.5803506
126,125,124,124,121,124,123,124,0,1764980884.5803533
125,124,124,124,120,123,124,124,0,1764980884.5803554
125,124,124,125,121,123,124,124,0,1764980884.5803576
124,124,124,125,123,124,124,123,0,1764980884.580365
124,124,124,124,125,125,123,123,0,1764980884.5803673
125,124,124,125,126,125,123,123,0,1764980884.5803697
125,124,124,125,127,124,123,123,0,1764980884.5803723
126,125,124,124,126,123,123,124,0,1764980884.5803745
126,126,124,124,125,122,125,125,0,1764980884.5803807
126,126,124,124,124,122,125,125,0,1764980884.580383
126,124,124,123,123,122,125,125,0,1764980884.5803852
125,124,124,123,123,124,125,124,0,1764980884.5803876
124,123,124,123,123,125,124,124,0,1764980884.58039
124,122,124,123,123,126,123,123,0,1764980884.5803924
124,122,123,123,123,127,123,123,0,1764980884.6005616
125,123,123,124,123,125,123,124,0,1764980884.600566
125,123,123,124,122,124,124,124,0,1764980884.6005685
126,124,123,124,121,122,124,125,0,1764980884.6005712
126,124,123,124,121,122,125,125,0,1764980884.6005735
126,124,124,124,122,122,124,124,0,1764980884.600576
125,124,124,124,124,123,124,123,0,1764980884.600578
125,124,124,124,126,124,124,123,0,1764980884.6005843
124,123,124,124,127,125,124,123,0,1764980884.6005864
124,124,124,124,127,125,124,123,0,1764980884.600589
124,124,124,124,126,124,124,124,0,1764980884.6005912
125,124,124,124,124,124,124,125,0,1764980884.6005976
125,124,124,124,123,124,125,125,0,1764980884.6005998
125,124,125,124,123,124,125,125,0,1764980884.600602
125,124,124,124,123,126,124,125,0,1764980884.600604
125,124,124,123,124,127,124,125,0,1764980884.6006103
125,123,124,123,124,128,124,125,0,1764980884.6308985
125,123,124,124,124,127,124,125,0,1764980884.630902
125,123,123,123,123,126,124,125,0,1764980884.6309047
125,124,123,124,121,125,124,125,0,1764980884.6309068
125,124,123,124,120,123,124,124,0,1764980884.6309092
125,124,123,124,120,122,124,124,0,1764980884.6309118
124,124,124,124,121,123,123,123,0,1764980884.630914
124,124,124,123,121,123,122,122,0,1764980884.6309164
124,124,124,123,123,123,122,122,0,1764980884.630919
125,124,124,123,123,122,122,122,0,1764980884.6309211
125,124,124,124,124,122,123,123,0,1764980884.6309237
126,125,124,124,124,121,124,124,0,1764980884.6309316
126,125,124,124,123,121,125,125,0,1764980884.630934
126,125,123,124,123,122,125,125,0,1764980884.6309364
125,125,123,125,123,124,125,125,0,1764980884.6309385
125,124,124,124,124,125,124,124,0,1764980884.6309414
125,124,124,124,125,126,124,124,0,1764980884.67128
125,124,124,124,127,127,123,124,0,1764980884.6713037
125,124,125,125,126,126,122,124,0,1764980884.6713068
126,124,125,125,125,125,123,125,0,1764980884.6713092
126,125,125,125,124,124,124,125,0,1764980884.6713116
126,125,124,125,122,123,125,125,0,1764980884.671314
126,124,124,125,121,123,125,125,0,1764980884.6713164
126,123,124,124,122,123,125,124,0,1764980884.6713185
125,123,124,123,122,124,124,124,0,1764980884.671321
124,123,124,123,122,123,124,124,0,1764980884.671323
124,124,124,122,123,124,123,124,0,1764980884.6713278
124,124,124,123,123,122,124,124,0,1764980884.6713295
125,125,124,123,122,121,124,124,0,1764980884.671332
125,125,123,124,123,121,125,124,0,1764980884.671334
125,125,124,124,124,122,126,124,0,1764980884.6713402
125,124,123,124,124,123,125,123,0,1764980884.6713433
125,123,124,123,125,125,125,123,0,1764980884.70159
124,123,125,122,125,126,124,123,0,1764980884.7015944
125,123,125,123,125,126,123,123,0,1764980884.7015967
125,123,124,123,124,124,123,123,0,1764980884.7015986
125,124,124,124,122,124,124,124,0,1764980884.701606
125,124,123,125,122,124,124,124,0,1764980884.7016082
126,125,123,125,122,125,123,124,0,1764980884.70161
125,124,123,124,123,126,123,124,0,1764980884.7016118
125,123,123,124,123,128,122,124,0,1764980884.7016137
124,123,124,123,124,128,121,124,0,1764980884.7016153
124,123,124,123,124,127,121,124,0,1764980884.701617
125,123,125,123,124,127,123,125,0,1764980884.7016187
125,124,125,124,123,125,124,125,0,1764980884.7016206
125,124,125,124,123,123,126,126,0,1764980884.7016242
125,124,124,124,123,122,127,126,0,1764980884.7016265
125,124,124,124,123,123,126,125,0,1764980884.7016287
125,123,123,124,124,124,125,124,0,1764980884.7419646
125,123,123,124,124,125,123,123,0,1764980884.741969
125,123,123,124,124,126,122,123,0,1764980884.7419717
125,123,124,124,124,126,122,123,0,1764980884.7419744
125,124,124,124,123,125,123,123,0,1764980884.7419765
125,125,124,125,122,123,124,124,0,1764980884.741979
125,125,125,125,122,122,125,125,0,1764980884.741981
125,125,125,125,122,121,125,125,0,1764980884.7419834
125,124,124,124,123,122,124,125,0,1764980884.7419858
125,124,125,123,124,124,123,124,0,1764980884.7419882
125,123,124,122,124,124,122,123,0,1764980884.74199
125,123,124,122,124,125,122,124,0,1764980884.7419925
125,124,124,122,124,125,123,124,0,1764980884.7419949
125,124,124,123,123,124,124,125,0,1764980884.7419968
126,125,124,124,123,123,126,125,0,1764980884.7419991
125,125,124,125,123,123,126,125,0,1764980884.742006
125,124,124,125,123,123,126,125,0,1764980884.762197
125,124,124,125,124,125,126,124,0,1764980884.7622108
125,124,124,124,125,126,125,124,0,1764980884.7622137
125,124,124,124,125,126,124,124,0,1764980884.7622156
126,125,124,124,125,126,124,124,0,1764980884.762218
126,125,123,124,124,124,124,125,0,1764980884.7622204
126,125,124,125,122,122,125,125,0,1764980884.7622225
126,125,124,125,122,121,125,125,0,1764980884.762229
125,124,124,124,124,120,124,124,0,1764980884.7622313
125,123,124,124,125,122,123,123,0,1764980884.7622335
125,123,124,124,125,123,122,122,0,1764980884.7622359
125,123,124,123,126,124,122,122,0,1764980884.762238
125,123,124,123,125,125,122,123,0,1764980884.7622402
125,124,124,123,123,125,123,124,0,1764980884.7622454
126,124,124,123,121,124,125,125,0,1764980884.7622476
126,124,124,124,120,123,126,126,0,1764980884.7622502
126,124,124,124,120,123,126,126,0,1764980884.812598
125,123,124,124,120,124,124,125,0,1764980884.812603
125,123,124,124,121,126,124,124,0,1764980884.8126051
125,123,124,124,123,126,123,123,0,1764980884.8126075
125,123,124,124,125,126,122,123,0,1764980884.81261
125,124,124,123,126,125,122,123,0,1764980884.812612
126,124,124,123,125,123,123,124,0,1764980884.8126144
126,125,124,123,124,121,124,124,0,1764980884.8126163
126,125,124,123,124,120,125,125,0,1764980884.8126187
125,125,124,123,123,122,125,125,0,1764980884.812621
125,124,125,123,123,122,125,124,0,1764980884.812623
125,124,125,124,124,124,123,124,0,1764980884.8126252
124,124,124,124,125,125,123,124,0,1764980884.8126273
125,124,124,124,125,126,122,124,0,1764980884.8126295
125,125,123,124,125,125,122,125,0,1764980884.8126316
125,125,123,124,124,125,124,125,0,1764980884.81264
126,125,123,124,122,125,125,125,0,1764980884.8327951
125,124,124,123,122,125,125,124,0,1764980884.832799
125,124,124,123,121,124,124,123,0,1764980884.8328068
124,123,125,123,121,125,124,123,0,1764980884.8328092
124,124,125,123,121,124,122,122,0,1764980884.8328125
125,124,125,124,122,123,123,123,0,1764980884.832815
125,124,124,124,122,123,124,125,0,1764980884.8328168
125,124,124,125,123,122,124,125,0,1764980884.832819
125,124,123,125,124,121,125,125,0,1764980884.8328211
125,123,123,125,125,122,125,124,0,1764980884.8328233
125,123,123,124,126,123,124,123,0,1764980884.8328257
124,123,123,123,126,125,122,122,0,1764980884.8328278
124,122,123,123,126,126,121,122,0,1764980884.83283
125,123,123,123,125,126,121,123,0,1764980884.8328357
125,123,124,123,124,124,122,124,0,1764980884.8328376
126,124,124,123,122,123,123,126,0,1764980884.8328404
126,125,124,124,122,121,125,126,0,1764980884.8530393
126,125,124,124,121,121,126,126,0,1764980884.8530428
125,124,124,124,122,122,126,125,0,1764980884.8530452
125,123,124,124,123,123,125,124,0,1764980884.8530476
125,123,125,124,124,125,123,123,0,1764980884.8530495
125,122,125,123,125,126,123,123,0,1764980884.853052
125,123,125,123,125,126,123,124,0,1764980884.853054
125,124,125,124,125,126,124,124,0,1764980884.8530562
125,125,124,124,123,126,125,125,0,1764980884.8530586
126,125,124,125,123,125,126,126,0,1764980884.853061
126,125,125,125,123,125,126,125,0,1764980884.853063
126,125,125,125,124,126,125,125,0,1764980884.8530655
125,124,125,125,125,126,124,124,0,1764980884.8530676
125,122,124,124,125,126,123,123,0,1764980884.8530695
125,122,124,124,125,125,123,123,0,1764980884.8530717
125,122,124,124,124,125,124,123,0,1764980884.8530746
125,123,123,124,123,123,125,124,0,1764980884.9034598
125,123,123,124,122,122,125,124,0,1764980884.903464
125,124,123,124,122,121,124,124,0,1764980884.9034665
126,124,123,124,123,122,124,124,0,1764980884.9034688
126,124,124,123,123,123,123,124,0,1764980884.903471
126,124,125,123,124,125,122,124,0,1764980884.9034734
127,124,125,123,124,125,122,124,0,1764980884.9034758
127,125,125,123,123,124,123,125,0,1764980884.9034777
127,125,125,123,122,123,124,125,0,1764980884.90348
126,125,124,123,122,121,125,124,0,1764980884.9034858
126,124,124,123,121,120,126,124,0,1764980884.9034882
125,124,124,123,123,121,126,124,0,1764980884.9034903
125,124,123,124,124,122,125,123,0,1764980884.9034927
124,123,123,124,124,125,124,123,0,1764980884.9034946
124,123,124,124,124,126,122,123,0,1764980884.9035003
124,124,124,124,124,126,122,123,0,1764980884.9035032
125,124,123,124,123,126,123,124,0,1764980884.923669
125,125,123,124,122,125,125,125,0,1764980884.9236732
125,125,124,124,122,124,125,125,0,1764980884.9236755
125,124,124,124,122,124,126,126,0,1764980884.9236782
125,123,124,124,122,125,125,125,0,1764980884.923684
125,123,124,123,123,126,124,124,0,1764980884.9236865
125,122,124,123,124,126,123,123,0,1764980884.9236887
125,123,124,123,124,126,123,123,0,1764980884.923691
125,123,124,123,123,124,124,123,0,1764980884.923693
125,124,123,124,122,123,125,124,0,1764980884.9236953
125,124,123,124,121,121,126,125,0,1764980884.9236977
126,124,124,125,122,121,126,125,0,1764980884.923704
126,123,124,124,123,122,125,124,0,1764980884.923706
126,123,124,124,124,124,124,124,0,1764980884.9237084
125,123,124,124,125,125,123,123,0,1764980884.9237108
125,123,124,123,125,125,122,123,0,1764980884.9237134
125,124,123,123,124,124,123,124,0,1764980884.9640534
125,125,123,123,123,122,123,125,0,1764980884.9640582
125,125,122,123,122,122,124,125,0,1764980884.964061
125,125,123,124,122,121,124,125,0,1764980884.9640634
125,125,124,124,124,122,125,125,0,1764980884.9640703
125,125,124,125,124,124,124,124,0,1764980884.964073
126,124,125,125,125,126,123,123,0,1764980884.964075
126,124,126,125,126,127,123,124,0,1764980884.9640775
126,125,126,124,125,127,123,125,0,1764980884.9640799
126,124,125,124,124,127,123,126,0,1764980884.9640822
126,124,124,124,123,126,124,126,0,1764980884.9640844
126,124,124,123,122,124,125,126,0,1764980884.964087
125,123,123,122,121,123,125,125,0,1764980884.9640892
125,123,123,122,122,124,125,123,0,1764980884.9640913
125,123,123,122,123,125,124,122,0,1764980884.9640937
125,123,123,122,124,126,123,122,0,1764980884.9640963
125,123,123,122,124,126,124,123,0,1764980884.9843109
125,123,123,123,124,125,124,124,0,1764980884.984315
125,124,124,124,124,124,124,125,0,1764980884.9843175
126,124,124,125,123,122,125,126,0,1764980884.9843197
125,124,124,125,123,122,124,126,0,1764980884.984322
126,124,124,125,124,122,123,125,0,1764980884.9843292
125,124,124,125,124,123,123,123,0,1764980884.9843316
125,123,124,124,124,124,122,123,0,1764980884.9843338
124,123,124,124,124,125,122,123,0,1764980884.9843361
125,124,125,123,124,125,123,123,0,1764980884.9843385
125,125,125,124,123,125,124,124,0,1764980884.9843407
125,125,124,124,123,124,125,124,0,1764980884.984343
126,124,124,125,123,123,126,125,0,1764980884.9843452
126,124,124,125,123,124,126,124,0,1764980884.9843473
126,123,124,125,123,124,125,124,0,1764980884.9843495
126,122,124,124,123,125,124,124,0,1764980884.9843526
125,123,124,124,123,126,124,124,0,1764980885.0346916
125,124,124,123,123,125,123,124,0,1764980885.0346954
125,124,124,123,122,124,123,124,0,1764980885.0346978
125,124,124,123,122,123,124,124,0,1764980885.0347
125,124,124,124,122,123,125,124,0,1764980885.0347023
125,124,124,124,123,124,125,124,0,1764980885.0347052
125,124,124,124,123,125,124,123,0,1764980885.0347075
125,124,124,123,125,127,124,123,0,1764980885.0347152
125,124,124,123,125,128,124,123,0,1764980885.0347173
125,124,124,123,125,126,123,123,0,1764980885.0347197
125,124,124,123,124,125,124,124,0,1764980885.034722
125,124,124,124,123,124,125,125,0,1764980885.034724
125,124,124,124,122,122,125,125,0,1764980885.0347264
125,125,124,124,122,121,125,126,0,1764980885.0347288
125,124,124,124,124,123,124,125,0,1764980885.0347307
125,124,123,123,124,124,123,124,0,1764980885.0347335
125,124,123,122,124,125,122,124,0,1764980885.054895
125,123,123,122,125,125,122,123,0,1764980885.0548975
125,123,123,123,124,125,122,123,0,1764980885.0549
126,123,124,123,122,124,123,124,0,1764980885.0549023
126,123,124,124,120,123,123,124,0,1764980885.0549042
126,124,124,125,121,123,124,124,0,1764980885.0549066
126,124,124,126,121,123,123,123,0,1764980885.0549088
125,125,124,125,122,124,122,123,0,1764980885.054911
125,125,124,124,124,125,122,123,0,1764980885.054913
125,125,124,124,126,126,122,123,0,1764980885.0549152
125,125,125,124,125,125,123,124,0,1764980885.0549173
125,125,125,124,125,126,125,125,0,1764980885.0549195
125,125,124,125,124,125,126,126,0,1764980885.0549216
125,125,124,125,124,124,126,125,0,1764980885.054924
125,124,124,126,124,125,126,125,0,1764980885.0549264
125,123,124,125,125,126,126,124,0,1764980885.0549293
125,123,124,125,125,126,124,123,0,1764980885.0750964
125,122,125,124,124,126,123,123,0,1764980885.0751
125,122,124,123,124,126,123,123,0,1764980885.075102
125,123,124,123,122,124,123,124,0,1764980885.0751047
125,124,124,123,121,123,123,124,0,1764980885.075111
125,125,123,123,121,121,124,125,0,1764980885.0751133
125,125,123,123,121,121,124,125,0,1764980885.0751154
125,124,123,123,121,122,124,124,0,1764980885.0751176
125,124,123,123,123,123,124,123,0,1764980885.07512
125,124,123,123,124,124,123,123,0,1764980885.0751219
125,124,124,123,124,125,123,124,0,1764980885.0751243
126,124,124,123,124,124,124,124,0,1764980885.0751262
126,125,124,123,123,124,125,125,0,1764980885.0751286
126,124,124,124,122,123,125,125,0,1764980885.0751312
126,124,124,123,122,123,125,125,0,1764980885.0751333
125,123,123,124,123,123,124,124,0,1764980885.075136
125,122,123,124,124,125,122,124,0,1764980885.125588
124,122,123,124,124,125,122,124,0,1764980885.125593
124,122,124,124,124,125,122,124,0,1764980885.1255953
124,123,124,124,124,125,122,125,0,1764980885.125598
125,124,125,124,123,125,124,125,0,1764980885.1256003
125,125,125,124,123,123,126,125,0,1764980885.1256027
126,125,125,124,123,124,126,125,0,1764980885.1256053
126,125,124,125,123,124,126,124,0,1764980885.1256077
125,125,124,124,123,124,125,123,0,1764980885.1256096
125,124,124,124,123,125,123,122,0,1764980885.125612
125,124,124,123,122,125,122,122,0,1764980885.1256196
125,123,124,123,122,124,122,122,0,1764980885.125622
125,123,124,123,122,123,123,124,0,1764980885.1256242
126,123,123,124,122,123,124,125,0,1764980885.1256263
126,124,123,125,122,122,125,125,0,1764980885.1256287
126,124,123,125,123,122,126,125,0,1764980885.1256313
126,124,123,125,123,123,125,125,0,1764980885.1458552
125,124,123,124,124,124,124,123,0,1764980885.14586
125,124,123,123,124,124,123,123,0,1764980885.1458623
125,124,124,123,124,125,123,123,0,1764980885.1458828
125,124,124,123,124,125,123,123,0,1764980885.1458964
125,123,124,124,124,125,124,124,0,1764980885.1458993
125,123,124,124,123,125,125,125,0,1764980885.1459012
125,123,124,124,124,125,125,125,0,1764980885.1459036
124,123,124,123,123,125,125,124,0,1764980885.1459062
124,123,124,123,124,126,124,123,0,1764980885.1459157
124,124,124,122,124,127,123,123,0,1764980885.145918
125,124,124,123,124,126,123,123,0,1764980885.1459203
125,125,124,124,124,125,124,124,0,1764980885.1459224
126,125,124,124,124,123,125,124,0,1764980885.1459246
126,125,124,125,124,121,126,125,0,1764980885.145927
126,126,124,125,123,120,126,124,0,1764980885.1459296
125,125,124,125,124,120,125,124,0,1764980885.1863043
125,125,124,125,124,122,124,123,0,1764980885.1863093
124,124,124,124,123,124,123,123,0,1764980885.186312
124,123,124,123,123,125,122,123,0,1764980885.1863143
125,123,124,123,122,125,122,124,0,1764980885.1863167
125,123,123,122,122,125,123,125,0,1764980885.1863227
126,124,123,122,122,124,125,125,0,1764980885.1863265
126,124,124,124,122,123,126,126,0,1764980885.1863325
126,124,124,124,122,122,126,126,0,1764980885.1863346
126,123,124,124,123,123,125,125,0,1764980885.186337
125,123,124,124,124,123,124,124,0,1764980885.1863394
125,122,124,123,125,124,123,123,0,1764980885.1863413
125,122,124,122,126,124,122,122,0,1764980885.1863437
125,123,124,122,126,124,123,123,0,1764980885.186346
126,124,124,123,126,123,123,124,0,1764980885.186348
126,125,124,123,124,123,124,124,0,1764980885.186357
126,125,124,124,123,124,124,125,0,1764980885.2165408
126,124,124,124,122,124,124,125,0,1764980885.2165446
125,123,124,124,123,125,123,124,0,1764980885.216547
125,122,124,123,124,126,123,123,0,1764980885.216557
124,122,124,123,124,127,122,123,0,1764980885.2165596
124,122,124,123,124,126,122,124,0,1764980885.2165623
124,123,124,123,123,125,123,125,0,1764980885.2165647
125,125,124,124,122,124,124,125,0,1764980885.216567
125,125,124,124,122,122,125,125,0,1764980885.2165697
125,126,124,124,121,121,125,125,0,1764980885.216572
125,125,124,123,122,122,124,124,0,1764980885.2165744
125,124,124,124,123,122,123,124,0,1764980885.216577
125,123,124,124,123,123,122,123,0,1764980885.2165794
125,123,124,124,123,124,123,123,0,1764980885.2165818
125,123,124,125,124,124,123,124,0,1764980885.2165859
126,123,124,125,123,124,124,125,0,1764980885.216589
126,124,124,125,122,124,125,125,0,1764980885.256954
126,124,124,125,122,124,125,125,0,1764980885.2569582
125,123,123,124,123,124,124,124,0,1764980885.2569609
125,123,123,123,123,126,124,123,0,1764980885.256963
124,123,123,123,124,127,123,122,0,1764980885.2569654
124,123,124,123,125,127,123,123,0,1764980885.256968
124,124,124,122,124,126,124,123,0,1764980885.2569702
125,125,125,122,123,124,125,124,0,1764980885.2569726
125,125,125,123,123,123,125,125,0,1764980885.256975
126,125,125,124,122,122,126,126,0,1764980885.256977
125,125,124,125,122,123,124,125,0,1764980885.2569795
126,124,124,125,124,125,124,124,0,1764980885.2569816
126,124,124,125,125,126,124,124,0,1764980885.2569838
126,124,124,125,126,126,123,124,0,1764980885.256986
126,124,124,124,125,125,124,124,0,1764980885.2569885
126,125,124,123,124,123,125,124,0,1764980885.2569954
126,126,124,123,123,120,125,125,0,1764980885.277183
126,125,124,123,122,120,124,125,0,1764980885.277187
126,125,124,123,121,120,124,125,0,1764980885.2771897
125,124,123,123,122,122,123,124,0,1764980885.277192
125,124,124,123,123,124,122,123,0,1764980885.2771945
124,123,124,123,124,125,122,123,0,1764980885.277197
124,123,124,123,124,126,123,123,0,1764980885.2771988
125,123,124,123,123,126,124,124,0,1764980885.277201
125,124,124,124,123,125,125,124,0,1764980885.277203
125,124,124,123,122,123,126,125,0,1764980885.2772055
125,123,123,123,122,122,126,125,0,1764980885.2772079
125,123,123,123,122,122,125,124,0,1764980885.27721
125,122,123,123,123,123,123,123,0,1764980885.2772124
125,122,124,123,124,125,122,123,0,1764980885.2772145
125,123,125,124,125,126,122,123,0,1764980885.2772167
125,124,125,124,124,126,122,124,0,1764980885.2772253
125,124,125,124,124,125,123,124,0,1764980885.327587
126,125,125,125,124,124,125,125,0,1764980885.3275914
126,125,124,125,124,124,125,125,0,1764980885.3275943
126,125,124,124,124,124,125,125,0,1764980885.3275964
126,125,123,124,124,124,124,124,0,1764980885.3275988
126,124,124,124,125,125,124,123,0,1764980885.3276014
125,125,124,124,124,125,123,123,0,1764980885.3276038
125,125,124,124,124,124,123,123,0,1764980885.3276057
125,125,124,124,123,123,124,124,0,1764980885.327608
125,125,124,124,122,122,125,125,0,1764980885.3276103
125,125,124,124,122,122,125,126,0,1764980885.3276126
125,124,125,124,123,123,125,125,0,1764980885.3276148
125,124,125,124,123,125,124,125,0,1764980885.327617
125,124,125,124,124,126,123,124,0,1764980885.3276193
125,123,125,123,125,126,122,123,0,1764980885.3276217
125,124,124,124,125,126,122,123,0,1764980885.3276289
125,124,124,124,124,125,123,124,0,1764980885.34781
126,125,123,123,123,124,124,125,0,1764980885.3478143
126,125,124,124,122,123,124,125,0,1764980885.347817
126,124,124,124,122,123,124,125,0,1764980885.3478274
125,123,124,123,122,123,123,124,0,1764980885.34783
125,123,124,123,122,123,122,124,0,1764980885.3478322
125,123,125,123,123,124,122,123,0,1764980885.3478348
125,123,125,123,123,124,122,123,0,1764980885.3478372
125,123,125,123,123,123,123,124,0,1764980885.347839
126,124,125,124,123,123,124,125,0,1764980885.347845
126,124,124,124,123,122,125,125,0,1764980885.3478475
125,124,124,124,122,121,125,125,0,1764980885.3478494
125,124,124,124,122,122,125,125,0,1764980885.3478518
125,124,124,124,123,124,125,124,0,1764980885.3478541
125,124,124,124,125,126,125,123,0,1764980885.347856
126,124,125,124,126,128,125,124,0,1764980885.347859
126,124,124,124,126,129,125,124,0,1764980885.3680642
126,125,124,125,125,128,126,125,0,1764980885.3680685
126,125,123,125,124,126,126,125,0,1764980885.3680708
125,124,123,125,123,123,126,125,0,1764980885.3680732
125,124,123,124,122,122,125,124,0,1764980885.3680756
125,123,123,123,123,122,124,124,0,1764980885.368078
125,123,123,123,124,123,123,123,0,1764980885.3680804
124,122,124,122,125,123,122,123,0,1764980885.3680866
125,123,124,122,126,125,122,123,0,1764980885.3680887
125,124,125,123,126,125,123,124,0,1764980885.368091
125,124,124,124,124,124,123,124,0,1764980885.3680935
126,125,124,125,123,124,124,125,0,1764980885.3680956
126,125,124,125,122,124,124,125,0,1764980885.368098
126,124,124,125,122,124,124,125,0,1764980885.3681002
125,124,123,125,123,125,124,125,0,1764980885.3681023
125,124,123,125,124,125,123,124,0,1764980885.368105
124,123,123,124,124,125,122,124,0,1764980885.4184918
124,124,124,124,124,124,122,124,0,1764980885.4184966
125,124,124,124,123,123,123,124,0,1764980885.4184992
125,125,124,124,122,121,124,124,0,1764980885.4185019
125,124,124,124,121,121,125,124,0,1764980885.4185042
125,124,123,124,122,121,125,124,0,1764980885.4185104
125,123,124,124,123,123,124,123,0,1764980885.4185128
126,123,124,124,124,125,124,123,0,1764980885.4185152
126,124,125,124,125,127,123,122,0,1764980885.4185174
125,124,125,124,125,126,123,123,0,1764980885.4185243
125,125,125,124,124,126,124,124,0,1764980885.4185264
125,125,125,124,122,124,124,125,0,1764980885.4185286
125,125,124,124,121,123,124,125,0,1764980885.4185307
125,124,123,124,121,123,124,125,0,1764980885.418533
125,123,123,124,121,124,123,124,0,1764980885.4185355
125,123,124,124,122,124,122,123,0,1764980885.4185383
125,123,123,124,123,124,122,122,0,1764980885.4386768
125,123,123,123,124,124,122,122,0,1764980885.4387057
125,124,124,124,124,123,123,123,0,1764980885.4387085
125,124,124,124,124,122,124,125,0,1764980885.4387143
125,124,124,124,123,122,125,125,0,1764980885.4387167
125,125,124,124,123,123,124,126,0,1764980885.438719
125,124,124,124,124,124,124,125,0,1764980885.4387212
124,124,124,123,125,125,123,124,0,1764980885.4387236
124,124,124,122,126,126,123,123,0,1764980885.438726
124,124,124,122,126,125,123,123,0,1764980885.438728
125,124,124,122,125,123,124,124,0,1764980885.4387302
125,124,124,122,122,122,125,123,0,1764980885.4387324
126,124,124,123,121,121,125,123,0,1764980885.4387345
126,124,124,123,120,122,126,124,0,1764980885.438737
126,124,124,124,120,122,125,124,0,1764980885.4387393
125,124,125,124,122,125,124,124,0,1764980885.4387453
125,124,125,124,124,126,123,124,0,1764980885.4589558
125,124,125,124,125,126,123,125,0,1764980885.4589603
125,124,125,124,125,127,123,125,0,1764980885.4589627
126,125,124,124,124,126,124,125,0,1764980885.4589705
126,125,123,124,123,125,125,125,0,1764980885.458973
126,125,123,124,122,123,126,125,0,1764980885.4589758
125,125,123,124,122,123,125,125,0,1764980885.4589777
125,124,123,124,123,123,124,124,0,1764980885.4589803
125,123,124,124,124,124,123,124,0,1764980885.4589827
125,123,125,124,125,125,122,124,0,1764980885.4589849
126,123,125,123,125,126,122,124,0,1764980885.458987
126,123,125,124,125,126,123,125,0,1764980885.4589894
127,124,124,124,124,125,124,125,0,1764980885.4589915
126,124,124,124,123,124,124,125,0,1764980885.458994
126,124,123,124,122,124,124,124,0,1764980885.4589963
125,124,123,125,122,124,124,123,0,1764980885.4589992
125,124,124,124,123,124,124,123,0,1764980885.529537
124,123,124,123,124,124,124,122,0,1764980885.529542
124,124,124,123,124,123,124,123,0,1764980885.5295444
125,124,124,123,124,123,124,124,0,1764980885.5295472
125,125,125,123,123,122,124,125,0,1764980885.5295498
125,125,124,124,122,122,125,125,0,1764980885.5295522
126,126,124,124,122,123,125,126,0,1764980885.5295546
126,125,124,124,122,124,125,125,0,1764980885.5295572
125,124,124,124,124,126,124,125,0,1764980885.5295596
125,123,124,123,125,127,123,124,0,1764980885.5295618
125,123,123,123,125,126,122,124,0,1764980885.5295641
125,123,123,123,124,125,123,123,0,1764980885.5295665
125,123,123,123,123,124,124,123,0,1764980885.5295687
125,124,123,123,122,122,124,124,0,1764980885.529571
125,125,123,123,121,122,125,124,0,1764980885.5295734
125,125,123,123,121,121,125,124,0,1764980885.5295763
125,124,123,123,121,122,123,124,0,1764980885.5497544
124,124,124,123,123,124,122,123,0,1764980885.5497584
124,124,124,123,124,125,121,124,0,1764980885.5497613
124,124,124,123,124,124,121,124,0,1764980885.5497637
124,124,125,124,124,124,122,125,0,1764980885.549766
125,124,125,124,123,123,123,125,0,1764980885.5497684
125,124,125,125,122,122,124,125,0,1764980885.5497758
125,123,124,125,123,122,125,125,0,1764980885.5497782
125,123,124,125,124,123,124,124,0,1764980885.5497808
125,123,124,124,125,124,124,123,0,1764980885.5497828
125,123,124,124,125,126,123,123,0,1764980885.5497851
125,124,124,124,125,127,123,124,0,1764980885.5497906
125,124,124,123,125,126,124,124,0,1764980885.549793
125,124,124,123,125,124,126,125,0,1764980885.5497956
125,124,123,124,124,123,126,125,0,1764980885.5497975
125,124,123,124,124,123,126,125,0,1764980885.5498002
125,124,123,124,125,123,125,125,0,1764980885.5700092
125,125,123,124,125,124,124,124,0,1764980885.5700123
125,124,124,124,125,126,123,124,0,1764980885.570015
125,124,124,124,125,126,123,124,0,1764980885.5700173
125,125,124,124,124,125,123,124,0,1764980885.5700192
126,125,125,124,124,124,125,124,0,1764980885.5700219
126,125,125,124,123,123,125,124,0,1764980885.5700243
126,125,125,124,122,123,126,125,0,1764980885.5700264
126,124,125,124,122,123,125,124,0,1764980885.5700288
125,124,124,124,123,124,124,123,0,1764980885.570031
125,123,124,123,123,125,123,122,0,1764980885.570033
125,123,124,123,123,127,122,122,0,1764980885.5700355
125,123,124,123,124,126,121,122,0,1764980885.5700378
125,123,124,123,123,125,122,124,0,1764980885.57004
125,124,124,123,122,124,124,125,0,1764980885.5700424
126,124,124,123,122,122,125,126,0,1764980885.5700452
126,125,124,124,123,122,125,125,0,1764980885.620448
126,124,124,123,124,122,125,125,0,1764980885.6204522
125,123,124,123,125,123,124,123,0,1764980885.6204545
125,123,124,123,126,124,123,123,0,1764980885.620463
125,123,124,123,125,125,123,123,0,1764980885.6204655
125,123,123,123,123,124,123,124,0,1764980885.620468
125,124,123,124,121,123,124,125,0,1764980885.6204703
125,124,123,124,119,122,125,125,0,1764980885.6204727
125,125,124,124,118,123,126,125,0,1764980885.6204748
125,124,124,124,119,124,125,124,0,1764980885.6204774
125,123,124,124,121,124,124,124,0,1764980885.6204796
125,123,124,123,124,126,123,123,0,1764980885.6204817
125,123,124,123,126,127,123,123,0,1764980885.6204844
125,123,124,123,126,126,123,124,0,1764980885.6204865
126,124,124,123,125,125,124,124,0,1764980885.620489
126,124,124,123,124,124,125,124,0,1764980885.6204917
126,125,124,123,123,123,125,124,0,1764980885.640614
125,124,124,123,123,123,124,123,0,1764980885.6406176
125,123,123,123,122,123,123,123,0,1764980885.6406205
125,124,123,123,123,123,122,122,0,1764980885.6406236
124,124,123,123,123,124,122,122,0,1764980885.6406264
125,124,123,124,123,124,123,122,0,1764980885.640629
125,124,124,124,122,124,124,124,0,1764980885.640632
125,125,124,124,122,124,125,125,0,1764980885.6406343
125,125,124,124,122,124,127,125,0,1764980885.640637
125,125,124,124,122,123,126,125,0,1764980885.6406398
125,124,124,124,123,123,125,125,0,1764980885.6406448
125,124,124,124,124,124,124,124,0,1764980885.6406476
125,123,124,123,125,125,123,124,0,1764980885.6406503
125,124,124,123,125,125,123,124,0,1764980885.640653
125,124,124,123,124,125,124,124,0,1764980885.6406553
125,124,124,123,123,124,125,125,0,1764980885.6406584
125,124,124,124,122,123,125,125,0,1764980885.6608608
125,124,124,125,123,123,126,126,0,1764980885.6608636
125,123,124,125,123,123,125,125,0,1764980885.6608665
126,123,124,125,125,124,124,124,0,1764980885.6608691
126,123,124,124,125,126,123,124,0,1764980885.660872
126,123,125,124,125,126,122,124,0,1764980885.6608748
126,124,125,124,124,125,122,124,0,1764980885.6608772
126,125,125,124,123,124,123,125,0,1764980885.6608799
126,126,124,125,122,123,124,125,0,1764980885.660883
126,126,124,125,122,122,125,125,0,1764980885.660888
125,125,124,125,123,121,125,124,0,1764980885.6608913
125,124,124,125,124,122,125,124,0,1764980885.660894
125,124,124,124,125,124,124,123,0,1764980885.6608968
125,124,125,124,125,126,123,123,0,1764980885.6608994
126,124,124,123,124,126,122,123,0,1764980885.6609018
126,125,124,123,122,125,123,124,0,1764980885.6609046
126,125,124,124,121,124,123,125,0,1764980885.7113829
126,125,123,124,120,123,124,125,0,1764980885.7113974
126,124,122,124,120,122,124,125,0,1764980885.7114
125,124,122,123,121,123,124,125,0,1764980885.7114022
125,123,123,123,124,124,123,124,0,1764980885.7114046
124,123,123,122,125,125,123,124,0,1764980885.7114072
124,123,123,122,125,125,123,123,0,1764980885.711409
125,123,124,123,125,124,123,124,0,1764980885.7114115
125,124,124,123,124,123,125,124,0,1764980885.7114139
125,124,124,124,123,122,126,124,0,1764980885.711416
126,124,125,125,123,123,127,125,0,1764980885.7114184
125,123,124,125,123,124,126,124,0,1764980885.7114208
125,123,124,124,124,125,125,124,0,1764980885.711423
125,123,124,123,125,126,124,124,0,1764980885.711425
125,123,123,123,125,125,123,123,0,1764980885.7114272
125,124,123,122,125,124,122,123,0,1764980885.711434
125,124,124,122,125,123,123,124,0,1764980885.7517924
125,125,124,123,125,123,124,124,0,1764980885.751798
125,126,124,124,124,123,125,125,0,1764980885.7518013
125,125,124,124,124,123,125,125,0,1764980885.7518044
125,124,124,124,125,124,124,124,0,1764980885.7518072
125,123,124,124,124,124,123,123,0,1764980885.75181
124,123,123,123,124,124,122,123,0,1764980885.751813
125,122,123,123,123,123,123,123,0,1764980885.7518158
125,123,124,123,122,123,124,123,0,1764980885.7518182
125,124,124,124,121,122,125,124,0,1764980885.7518208
125,125,124,124,121,122,125,125,0,1764980885.7518237
125,125,124,124,122,123,125,125,0,1764980885.7518263
125,124,124,124,123,123,125,125,0,1764980885.7518303
125,124,124,123,124,124,124,124,0,1764980885.7518327
125,124,124,123,125,125,123,123,0,1764980885.7518353
125,124,124,124,124,126,123,123,0,1764980885.751838
125,124,124,125,123,126,124,124,0,1764980885.7518404
126,125,124,125,122,125,125,124,0,1764980885.751843
126,125,124,125,121,124,126,125,0,1764980885.7518456
126,125,125,125,121,123,126,126,0,1764980885.7518487
126,125,124,124,122,123,125,125,0,1764980885.7518513
126,124,125,124,124,124,124,125,0,1764980885.751854
125,124,125,123,125,126,123,124,0,1764980885.7518566
125,123,125,123,126,126,122,123,0,1764980885.7518594
125,123,124,123,125,126,123,123,0,1764980885.751862
126,124,124,124,124,125,123,124,0,1764980885.751865
126,125,124,125,123,124,124,124,0,1764980885.7518673
126,125,124,125,122,123,124,124,0,1764980885.75187
126,125,124,125,122,122,124,124,0,1764980885.7518735
125,125,124,125,123,123,123,123,0,1764980885.7518756
125,124,125,124,124,124,123,123,0,1764980885.7518778
125,123,125,123,124,124,122,122,0,1764980885.7518806
124,123,125,122,125,124,123,123,0,1764980885.8022974
124,123,124,122,125,124,124,124,0,1764980885.802302
125,124,124,123,124,123,125,125,0,1764980885.8023045
125,124,124,123,125,123,126,125,0,1764980885.802307
125,124,123,124,125,124,125,126,0,1764980885.802309
125,124,124,123,125,125,124,125,0,1764980885.8023114
125,124,124,124,125,127,124,125,0,1764980885.8023138
125,124,124,124,125,129,123,124,0,1764980885.802316
126,124,124,124,124,129,123,124,0,1764980885.8023183
126,124,124,124,123,128,124,125,0,1764980885.8023205
126,125,124,124,122,126,125,125,0,1764980885.8023226
126,125,124,125,122,124,126,125,0,1764980885.8023267
126,124,124,125,122,122,126,125,0,1764980885.8023326
125,124,124,124,122,122,126,125,0,1764980885.8023412
124,123,124,124,123,123,125,124,0,1764980885.8023434
124,123,124,124,123,124,124,123,0,1764980885.802346
124,123,123,124,123,124,123,123,0,1764980885.8226206
124,123,123,123,122,124,122,123,0,1764980885.8226554
125,124,123,123,122,123,123,123,0,1764980885.8226578
125,124,123,124,122,123,124,124,0,1764980885.8226602
125,124,123,124,122,122,124,124,0,1764980885.8226626
125,123,123,123,122,122,124,124,0,1764980885.8226695
125,123,123,123,123,122,124,124,0,1764980885.8226721
125,123,124,123,124,123,123,123,0,1764980885.8226745
125,123,124,122,125,124,122,122,0,1764980885.8226764
125,124,124,122,125,124,122,123,0,1764980885.8226788
125,124,123,122,124,125,122,123,0,1764980885.822681
125,125,123,122,123,125,123,124,0,1764980885.822683
125,124,123,123,123,124,125,125,0,1764980885.8226855
126,124,124,124,123,124,126,125,0,1764980885.8226874
125,124,124,124,123,124,126,124,0,1764980885.8226895
125,123,124,124,124,123,126,124,0,1764980885.8227036
125,123,125,125,125,125,125,124,0,1764980885.8630328
125,123,125,125,124,125,125,124,0,1764980885.8630362
126,124,124,124,124,125,124,124,0,1764980885.8630385
126,124,124,125,123,124,124,125,0,1764980885.8630404
126,125,124,125,123,124,124,125,0,1764980885.8630426
125,125,124,125,123,123,124,124,0,1764980885.8630488
125,124,124,125,123,122,122,124,0,1764980885.8630507
125,124,124,124,124,123,122,123,0,1764980885.863053
125,124,124,124,124,125,122,123,0,1764980885.8630555
125,124,124,123,124,125,122,123,0,1764980885.8630574
125,124,124,123,124,125,123,123,0,1764980885.8630598
126,124,125,124,124,124,124,125,0,1764980885.8630617
126,124,125,124,123,123,124,125,0,1764980885.8630638
126,124,124,124,123,123,124,126,0,1764980885.8630662
125,124,124,124,123,123,124,125,0,1764980885.863068
125,124,124,124,123,123,123,124,0,1764980885.8630705
124,123,124,123,123,125,122,123,0,1764980885.8933454
124,123,124,123,124,125,122,123,0,1764980885.8933558
124,123,124,123,124,125,123,123,0,1764980885.893358
125,124,124,123,124,126,124,124,0,1764980885.8933601
126,124,124,123,124,125,125,125,0,1764980885.8933623
126,125,124,124,123,124,126,125,0,1764980885.8933728
126,125,124,124,124,123,126,125,0,1764980885.8933947
125,125,123,124,124,123,126,124,0,1764980885.8933976
125,124,123,123,124,123,125,123,0,1764980885.8934045
124,124,124,124,125,123,124,123,0,1764980885.8934066
124,124,124,123,124,123,123,123,0,1764980885.8934126
125,124,124,123,123,123,123,123,0,1764980885.893415
125,124,124,123,123,122,124,123,0,1764980885.8934264
125,124,124,123,123,122,124,124,0,1764980885.8934288
126,124,124,123,123,121,125,124,0,1764980885.8934374
126,123,124,123,124,123,125,124,0,1764980885.89344
125,123,124,123,125,124,124,124,0,1764980885.913583
125,123,124,123,124,127,123,123,0,1764980885.9135876
125,124,124,124,124,128,123,123,0,1764980885.91359
125,124,123,124,123,128,123,124,0,1764980885.9135923
125,124,123,124,122,128,123,125,0,1764980885.9135945
125,125,123,124,122,126,124,126,0,1764980885.9135969
125,125,124,124,122,124,124,126,0,1764980885.9135993
125,124,124,124,123,124,124,126,0,1764980885.9136052
125,124,124,124,124,124,124,125,0,1764980885.9136071
125,125,124,124,124,124,123,124,0,1764980885.9136095
125,125,124,124,125,124,123,123,0,1764980885.913612
125,125,124,124,124,124,123,123,0,1764980885.913614
126,126,124,124,124,123,123,124,0,1764980885.9136164
126,126,124,124,123,123,124,125,0,1764980885.9136188
125,125,124,124,122,123,124,125,0,1764980885.9136207
125,124,123,123,123,123,124,125,0,1764980885.9136236
125,123,123,123,124,123,124,124,0,1764980885.953976
125,122,123,123,125,124,123,123,0,1764980885.9539797
125,121,123,123,126,126,123,123,0,1764980885.9539857
125,121,124,124,126,126,123,123,0,1764980885.9539883
125,122,124,125,126,126,124,124,0,1764980885.9539907
126,124,125,125,124,125,125,125,0,1764980885.9539928
125,124,125,125,123,124,126,125,0,1764980885.9539952
125,124,125,125,122,123,126,125,0,1764980885.9539976
125,123,124,124,121,123,125,124,0,1764980885.9539998
124,123,124,123,121,124,124,123,0,1764980885.9540021
125,123,124,123,123,125,123,122,0,1764980885.9540043
125,123,124,124,123,126,122,123,0,1764980885.9540064
126,124,125,124,123,125,122,123,0,1764980885.9540088
126,125,125,123,123,125,124,124,0,1764980885.9540112
126,126,125,123,123,124,125,125,0,1764980885.954013
126,126,124,123,122,123,126,125,0,1764980885.9540157
125,125,124,123,122,123,125,125,0,1764980885.9741964
125,125,123,123,123,123,125,124,0,1764980885.9741993
125,124,123,123,124,123,124,124,0,1764980885.9742017
124,124,124,123,124,124,123,124,0,1764980885.9742036
124,124,124,123,125,124,122,124,0,1764980885.974206
125,124,124,124,124,124,123,124,0,1764980885.974208
125,124,124,124,124,124,124,125,0,1764980885.97421
125,124,124,124,122,124,124,124,0,1764980885.9742124
125,124,124,124,123,124,124,125,0,1764980885.9742143
125,123,124,124,123,125,123,125,0,1764980885.9742165
125,122,123,124,124,125,122,124,0,1764980885.9742186
124,123,123,124,125,126,122,123,0,1764980885.9742205
125,123,123,124,125,125,122,124,0,1764980885.9742227
125,123,124,125,125,124,122,123,0,1764980885.9742248
126,124,124,125,125,123,124,123,0,1764980885.974227
126,124,124,125,124,122,125,123,0,1764980885.9742296
126,123,124,124,124,122,126,123,0,1764980886.024625
125,123,124,124,124,123,125,123,0,1764980886.0246296
125,123,124,124,124,125,124,123,0,1764980886.024632
125,123,124,124,124,126,123,122,0,1764980886.0246344
125,124,125,123,124,127,122,123,0,1764980886.0246367
125,125,125,123,123,126,122,124,0,1764980886.024639
126,125,125,124,122,125,123,124,0,1764980886.0246415
126,126,125,125,122,124,125,125,0,1764980886.024644
126,125,125,125,122,122,125,126,0,1764980886.024646
126,125,124,125,122,122,125,125,0,1764980886.0246482
125,124,124,125,122,123,125,124,0,1764980886.0246506
125,123,124,125,122,123,124,123,0,1764980886.0246527
124,123,124,124,122,123,123,123,0,1764980886.0246546
124,123,124,123,122,124,123,123,0,1764980886.024657
125,124,124,123,122,123,124,124,0,1764980886.024659
125,125,124,123,122,122,125,124,0,1764980886.0246668
125,125,124,123,122,122,126,125,0,1764980886.0448766
125,125,123,123,122,122,126,125,0,1764980886.0448809
125,124,123,123,123,123,124,125,0,1764980886.0448835
125,123,124,123,123,124,123,124,0,1764980886.0448859
125,122,123,122,124,124,121,124,0,1764980886.044888
125,122,123,123,123,125,120,124,0,1764980886.0448904
125,123,123,123,123,124,120,124,0,1764980886.0448983
126,123,123,124,122,123,122,124,0,1764980886.0449004
126,124,124,125,121,123,124,124,0,1764980886.0449026
126,124,124,125,121,123,124,124,0,1764980886.0449047
125,124,124,125,122,124,125,123,0,1764980886.0449138
125,125,124,124,123,125,124,123,0,1764980886.044916
125,125,124,124,124,126,123,123,0,1764980886.044918
125,125,124,123,126,127,123,123,0,1764980886.0449202
126,125,125,123,127,126,124,124,0,1764980886.0449226
126,125,125,124,126,124,125,124,0,1764980886.0449252
126,125,125,124,124,123,125,125,0,1764980886.0651262
126,125,124,124,124,122,126,125,0,1764980886.0651298
125,124,124,124,123,122,125,125,0,1764980886.0651321
125,123,124,124,123,123,124,124,0,1764980886.0651343
124,123,124,124,124,125,123,123,0,1764980886.0651367
124,122,124,123,124,126,122,123,0,1764980886.065139
125,122,124,123,124,126,122,122,0,1764980886.065141
125,123,123,124,123,125,123,123,0,1764980886.0651433
125,124,123,124,122,124,123,124,0,1764980886.0651453
126,125,123,125,122,122,124,125,0,1764980886.0651479
126,125,123,124,122,121,124,125,0,1764980886.06515
125,124,123,124,123,122,124,124,0,1764980886.0651522
125,124,124,123,124,123,123,124,0,1764980886.0651543
125,123,124,122,125,125,123,123,0,1764980886.0651565
125,123,124,122,125,127,123,123,0,1764980886.0651586
125,123,124,123,125,126,123,124,0,1764980886.0651612
125,123,124,124,124,125,124,125,0,1764980886.1155756
125,124,124,124,123,124,125,125,0,1764980886.1155803
125,124,124,125,123,122,125,125,0,1764980886.1155832
125,125,124,125,123,122,125,125,0,1764980886.1155856
125,125,124,125,124,123,124,124,0,1764980886.115588
125,124,124,124,125,125,123,123,0,1764980886.11559
125,124,124,123,124,126,123,123,0,1764980886.1155922
126,124,124,123,124,127,124,123,0,1764980886.1155949
126,124,123,123,123,126,125,123,0,1764980886.1155968
125,124,122,123,122,125,125,123,0,1764980886.1155992
125,124,122,124,122,124,126,124,0,1764980886.1156013
125,124,123,124,123,123,125,125,0,1764980886.1156042
124,123,123,123,123,122,125,124,0,1764980886.1156065
124,123,124,123,124,123,124,124,0,1764980886.115613
124,123,124,123,125,125,123,124,0,1764980886.1156158
124,123,124,123,124,125,123,124,0,1764980886.1156182
125,123,124,123,124,124,124,124,0,1764980886.1358109
125,124,124,124,123,124,124,125,0,1764980886.1358223
126,125,124,124,123,123,124,126,0,1764980886.135825
126,124,123,124,123,122,124,126,0,1764980886.1358273
126,124,123,124,123,123,123,125,0,1764980886.1358294
125,123,123,123,124,124,122,124,0,1764980886.135832
125,123,123,123,124,124,121,123,0,1764980886.1358342
125,122,123,123,123,124,121,123,0,1764980886.1358364
125,123,124,123,122,124,122,122,0,1764980886.1358418
125,123,124,123,122,123,124,123,0,1764980886.1358438
126,124,125,124,121,121,125,124,0,1764980886.1358461
126,124,124,124,122,122,126,125,0,1764980886.135852
126,124,124,124,122,123,127,126,0,1764980886.1358542
126,125,125,125,123,125,126,126,0,1764980886.1358566
126,124,125,125,125,126,125,126,0,1764980886.1358588
126,124,125,125,126,127,125,126,0,1764980886.1358612
126,125,125,124,126,126,124,125,0,1764980886.176253
126,125,125,124,126,125,124,125,0,1764980886.1762583
126,125,124,124,125,124,125,125,0,1764980886.176261
125,126,124,124,124,123,125,125,0,1764980886.1762636
125,125,124,124,124,123,125,124,0,1764980886.176266
124,124,124,124,123,125,124,123,0,1764980886.1762683
125,124,125,124,122,126,123,123,0,1764980886.1762705
125,124,124,123,123,127,122,122,0,1764980886.176277
125,124,124,123,123,126,122,123,0,1764980886.176279
125,124,124,123,122,125,123,123,0,1764980886.1762817
126,125,124,124,122,123,124,124,0,1764980886.1762838
125,125,124,125,121,122,124,124,0,1764980886.1762862
125,124,124,125,121,122,125,125,0,1764980886.1762886
125,123,124,125,122,124,125,125,0,1764980886.1762908
125,123,123,124,123,126,124,124,0,1764980886.1762931
125,122,123,123,125,127,124,124,0,1764980886.1762958
125,123,123,123,126,127,123,124,0,1764980886.2065377
125,124,123,123,125,126,123,124,0,1764980886.2065425
125,124,124,124,124,125,123,124,0,1764980886.2065454
125,125,124,124,124,124,124,125,0,1764980886.206548
125,124,124,124,124,123,124,125,0,1764980886.2065504
125,123,124,124,125,122,123,124,0,1764980886.2065525
124,122,124,124,126,122,122,123,0,1764980886.206555
124,122,124,123,126,121,121,122,0,1764980886.2065573
124,122,124,123,125,122,121,122,0,1764980886.2065594
125,123,123,123,123,122,121,122,0,1764980886.2065618
125,124,123,123,121,122,123,122,0,1764980886.2065642
126,125,123,123,121,122,125,124,0,1764980886.2065663
126,126,124,123,121,123,126,124,0,1764980886.2065685
126,125,124,123,121,123,126,125,0,1764980886.2065704
126,125,124,124,123,124,125,125,0,1764980886.2065725
126,125,124,124,124,126,125,125,0,1764980886.2065756
125,124,125,123,124,126,124,125,0,1764980886.246955
125,124,125,123,124,125,124,125,0,1764980886.24696
125,124,125,123,123,125,125,125,0,1764980886.2469625
125,124,124,123,122,124,125,125,0,1764980886.246965
125,124,124,123,122,123,125,125,0,1764980886.2469673
125,123,123,124,122,124,124,125,0,1764980886.24697
125,123,123,124,123,125,122,124,0,1764980886.2469723
125,123,124,124,125,125,121,124,0,1764980886.2469747
125,123,124,125,126,125,122,124,0,1764980886.2469773
125,123,124,124,126,124,122,123,0,1764980886.2469795
126,124,125,124,125,123,123,123,0,1764980886.2469819
126,125,125,124,124,122,125,124,0,1764980886.246985
126,125,124,124,123,122,126,124,0,1764980886.246987
126,125,124,124,122,123,125,124,0,1764980886.2469893
126,125,124,124,122,123,125,124,0,1764980886.2469916
125,124,124,124,123,124,124,124,0,1764980886.2469943
125,124,124,124,124,125,123,124,0,1764980886.3176072
125,124,125,124,125,126,123,124,0,1764980886.3176126
125,123,124,124,124,125,123,124,0,1764980886.317615
126,124,124,124,123,125,123,124,0,1764980886.3176177
126,124,124,124,122,124,124,125,0,1764980886.31762
126,124,124,124,121,123,125,125,0,1764980886.3176222
125,123,124,124,121,122,125,124,0,1764980886.3176246
125,123,124,124,122,123,124,124,0,1764980886.3176272
124,123,124,124,123,124,124,123,0,1764980886.3176298
124,123,124,124,123,125,123,123,0,1764980886.317632
124,123,124,123,124,125,122,123,0,1764980886.317634
125,124,124,123,123,125,122,123,0,1764980886.3176363
126,124,124,123,123,124,123,124,0,1764980886.3176384
126,125,124,123,122,123,124,125,0,1764980886.3176408
126,126,125,124,124,123,125,126,0,1764980886.317648
126,125,125,124,124,123,125,125,0,1764980886.3176513
125,124,125,124,125,123,124,125,0,1764980886.3378165
125,124,125,124,126,124,123,124,0,1764980886.33782
125,124,124,123,125,124,123,123,0,1764980886.3378227
125,123,123,123,124,124,123,123,0,1764980886.337825
125,123,123,123,122,124,124,124,0,1764980886.3378274
125,124,123,124,122,123,125,125,0,1764980886.3378296
125,124,123,124,122,123,126,125,0,1764980886.337832
124,123,123,124,123,123,125,124,0,1764980886.3378344
124,123,124,124,124,124,125,124,0,1764980886.3378363
125,123,124,124,125,125,124,123,0,1764980886.3378386
125,123,124,123,126,126,123,123,0,1764980886.3378408
125,124,125,123,125,126,123,123,0,1764980886.3378432
125,124,124,123,124,125,123,124,0,1764980886.3378453
125,124,124,123,123,124,123,125,0,1764980886.3378472
125,124,124,123,122,122,124,125,0,1764980886.3378496
125,124,123,124,121,121,123,125,0,1764980886.3378518
125,123,123,124,122,121,122,124,0,1764980886.337854
125,123,123,124,122,122,122,124,0,1764980886.337856
125,123,123,124,123,123,122,124,0,1764980886.3378582
125,123,123,123,123,124,122,124,0,1764980886.3378603
125,124,124,123,123,125,124,124,0,1764980886.3378627
126,124,125,123,123,125,125,125,0,1764980886.3378649
126,125,125,123,123,125,126,125,0,1764980886.337867
126,125,125,123,123,124,125,124,0,1764980886.3378732
125,125,124,123,123,124,125,124,0,1764980886.337876
125,124,124,123,123,125,124,123,0,1764980886.3378782
124,123,123,123,123,124,123,122,0,1764980886.3378804
124,123,123,123,124,124,123,122,0,1764980886.3378825
124,123,123,123,124,122,123,123,0,1764980886.3378847
125,123,123,124,122,121,124,123,0,1764980886.337887
125,124,124,124,122,121,125,124,0,1764980886.3378992
126,125,124,125,122,121,125,124,0,1764980886.3379018
126,125,124,125,123,123,125,124,0,1764980886.3580825
126,125,125,124,124,125,124,124,0,1764980886.3580868
126,125,125,124,125,127,124,125,0,1764980886.3580892
126,124,125,123,125,127,123,125,0,1764980886.3580918
126,124,125,123,125,126,123,125,0,1764980886.3580945
125,124,125,123,124,125,123,125,0,1764980886.3580966
125,124,125,124,122,124,123,126,0,1764980886.358099
125,124,124,124,121,122,124,125,0,1764980886.3581011
125,124,124,124,121,124,124,125,0,1764980886.3581069
125,124,123,124,122,126,124,124,0,1764980886.3581092
125,124,123,124,124,127,124,124,0,1764980886.3581114
125,124,123,124,125,127,124,123,0,1764980886.3581138
125,124,123,125,126,127,124,124,0,1764980886.358116
126,124,123,125,126,125,124,125,0,1764980886.358118
126,124,124,125,124,124,124,125,0,1764980886.3581204
126,124,124,124,123,123,124,125,0,1764980886.3581228
125,124,124,124,122,123,124,124,0,1764980886.4085274
125,123,124,124,122,124,123,123,0,1764980886.4085324
124,123,124,123,123,125,122,122,0,1764980886.4085352
124,123,124,123,123,126,122,122,0,1764980886.408538
124,123,124,124,124,126,122,122,0,1764980886.4085405
125,124,124,124,124,125,123,124,0,1764980886.4085426
126,124,124,125,124,124,124,125,0,1764980886.408545
126,125,124,125,124,123,125,126,0,1764980886.4085474
126,124,124,125,124,123,126,126,0,1764980886.4085493
126,124,124,125,124,123,127,125,0,1764980886.4085517
126,123,124,124,123,124,126,124,0,1764980886.4085538
125,123,124,123,124,125,125,123,0,1764980886.408556
125,123,124,123,124,125,125,123,0,1764980886.4085584
125,123,124,123,123,125,124,123,0,1764980886.4085636
125,124,124,123,123,123,124,124,0,1764980886.408566
125,125,124,124,123,122,125,125,0,1764980886.4085732
125,125,123,124,122,121,125,125,0,1764980886.42874
125,124,123,124,122,120,125,125,0,1764980886.4287534
125,124,124,124,123,121,124,124,0,1764980886.428756
125,123,124,124,123,122,122,123,0,1764980886.428758
125,123,124,124,123,123,122,123,0,1764980886.4287605
125,124,124,124,123,124,121,123,0,1764980886.4287627
125,124,124,123,123,125,122,123,0,1764980886.4287648
125,125,124,123,122,125,123,124,0,1764980886.4287784
125,125,124,123,122,125,124,125,0,1764980886.4287808
125,125,124,123,122,126,124,124,0,1764980886.4287832
125,124,124,123,123,127,124,123,0,1764980886.428785
125,123,124,123,124,126,123,123,0,1764980886.4287875
125,123,124,123,124,126,122,123,0,1764980886.4287899
125,123,124,124,125,125,122,123,0,1764980886.4287918
125,123,124,124,124,124,122,124,0,1764980886.4287941
125,123,124,124,123,122,123,125,0,1764980886.4287965
126,124,124,124,122,122,124,126,0,1764980886.4692028
125,124,123,124,121,122,124,126,0,1764980886.4692075
125,123,123,123,121,123,124,125,0,1764980886.469215
125,124,124,124,122,124,124,124,0,1764980886.4692175
125,124,124,124,125,126,124,124,0,1764980886.46922
125,124,125,125,126,126,124,123,0,1764980886.4692218
126,124,124,125,126,126,124,123,0,1764980886.4692242
126,125,125,125,125,125,125,124,0,1764980886.4692266
126,125,125,124,124,124,126,125,0,1764980886.4692285
126,125,124,124,122,124,126,126,0,1764980886.4692307
126,124,124,123,122,124,126,126,0,1764980886.4692373
126,124,124,124,123,125,125,125,0,1764980886.4692392
125,123,124,123,124,126,124,124,0,1764980886.4692416
125,123,124,124,125,126,123,123,0,1764980886.4692438
125,123,123,124,125,125,122,123,0,1764980886.469246
125,123,124,124,124,124,123,123,0,1764980886.4692485
125,124,124,124,123,123,124,123,0,1764980886.4994588
125,124,124,124,123,121,125,124,0,1764980886.4994633
125,124,124,124,123,121,125,125,0,1764980886.4994698
125,124,124,123,124,122,125,124,0,1764980886.4994724
125,123,124,123,125,123,124,124,0,1764980886.499475
125,123,124,122,125,124,122,124,0,1764980886.4994771
124,123,124,123,124,125,122,123,0,1764980886.4994793
125,123,124,123,124,124,122,123,0,1764980886.4994817
125,124,124,124,122,123,123,124,0,1764980886.4994838
125,124,124,124,122,122,123,124,0,1764980886.499486
125,124,124,125,121,121,123,124,0,1764980886.4994884
125,124,124,124,122,123,123,124,0,1764980886.4994903
125,124,124,124,123,124,122,124,0,1764980886.4994926
125,124,124,123,124,126,121,123,0,1764980886.4994946
125,124,125,123,125,128,122,124,0,1764980886.499497
125,124,125,123,125,128,123,124,0,1764980886.4994996
126,124,124,123,124,126,125,125,0,1764980886.5196254
126,124,124,124,123,125,126,125,0,1764980886.5196285
126,125,124,124,122,124,127,126,0,1764980886.5196311
126,124,123,124,122,123,126,125,0,1764980886.5196333
125,124,123,124,121,122,125,124,0,1764980886.519636
125,124,124,124,121,123,123,124,0,1764980886.5196383
124,123,124,123,122,123,122,124,0,1764980886.5196402
124,123,124,124,123,123,122,124,0,1764980886.5196426
125,123,124,124,123,123,122,124,0,1764980886.519645
125,124,124,124,123,123,124,124,0,1764980886.5196471
126,125,124,125,124,124,125,125,0,1764980886.5196495
126,125,124,125,124,124,125,125,0,1764980886.5196517
126,125,124,125,124,124,124,124,0,1764980886.5196536
125,124,124,125,124,125,123,124,0,1764980886.5196557
125,124,124,125,124,125,123,124,0,1764980886.519658
125,123,124,124,123,124,122,124,0,1764980886.5196605
125,123,124,124,122,123,123,124,0,1764980886.5600736
125,123,124,123,122,123,124,124,0,1764980886.5600786
125,124,124,123,122,122,125,124,0,1764980886.5600812
125,123,124,123,122,122,125,124,0,1764980886.5600836
125,123,124,123,122,122,124,124,0,1764980886.5600922
125,124,124,123,122,123,124,123,0,1764980886.5600944
125,124,124,123,123,124,124,124,0,1764980886.5600967
125,124,124,123,124,125,124,124,0,1764980886.5600991
125,125,124,124,124,125,124,125,0,1764980886.5601013
126,125,124,124,124,124,125,125,0,1764980886.5601034
126,125,124,124,124,124,124,126,0,1764980886.5601058
126,125,124,125,123,123,124,125,0,1764980886.560108
125,124,124,124,123,122,123,124,0,1764980886.56011
125,123,124,124,123,123,122,123,0,1764980886.5601125
124,123,124,123,123,124,122,123,0,1764980886.5601149
124,123,124,123,123,125,122,123,0,1764980886.5601175
124,123,124,123,123,125,123,123,0,1764980886.580337
124,124,124,123,123,125,124,124,0,1764980886.5803432
125,124,124,123,122,125,125,125,0,1764980886.5803487
125,125,123,124,122,124,126,125,0,1764980886.580351
125,124,123,124,122,123,126,125,0,1764980886.580354
125,124,123,123,123,124,125,124,0,1764980886.5803566
125,124,124,123,124,124,124,124,0,1764980886.5803592
125,123,124,123,124,124,123,123,0,1764980886.5803618
125,123,124,123,125,125,122,123,0,1764980886.580364
125,123,124,123,125,124,122,123,0,1764980886.5803664
126,123,124,123,124,123,124,124,0,1764980886.5803688
125,124,123,123,123,123,125,125,0,1764980886.5803804
125,124,123,124,123,123,126,125,0,1764980886.580383
125,124,123,124,123,124,126,124,0,1764980886.5803852
125,123,123,123,123,125,125,124,0,1764980886.5803936
124,123,124,123,124,126,123,122,0,1764980886.580397
124,124,124,123,124,126,122,122,0,1764980886.6307578
125,124,125,123,124,125,122,122,0,1764980886.630762
125,125,125,123,124,124,123,123,0,1764980886.6307645
125,125,125,124,124,123,124,124,0,1764980886.630767
125,125,124,124,124,122,124,125,0,1764980886.6307695
125,124,124,124,124,122,124,125,0,1764980886.6307719
125,124,124,124,124,122,124,125,0,1764980886.6307743
125,124,124,124,124,124,124,125,0,1764980886.6307766
125,123,124,124,124,125,123,124,0,1764980886.6307788
125,124,124,124,124,125,124,124,0,1764980886.6307814
125,124,124,124,124,125,124,125,0,1764980886.630784
126,124,124,124,124,125,124,125,0,1764980886.6307864
125,123,123,124,123,124,125,126,0,1764980886.6307886
125,123,123,125,122,123,124,125,0,1764980886.6307912
125,123,123,124,122,123,124,125,0,1764980886.6307936
125,123,123,124,122,125,123,123,0,1764980886.630796
124,123,123,123,122,126,123,122,0,1764980886.671125
124,123,123,123,123,126,122,122,0,1764980886.6711292
125,123,123,123,123,126,122,123,0,1764980886.6711318
125,123,123,123,122,125,123,124,0,1764980886.6711342
125,124,123,123,122,123,124,124,0,1764980886.6711366
125,124,123,123,122,122,125,124,0,1764980886.6711388
125,124,123,123,122,122,124,124,0,1764980886.6711411
125,125,124,124,124,123,124,124,0,1764980886.6711478
126,125,125,124,125,125,124,124,0,1764980886.67115
126,125,125,124,124,127,123,124,0,1764980886.6711524
126,125,125,124,123,127,123,124,0,1764980886.6711545
127,126,125,124,122,126,124,125,0,1764980886.671157
127,125,125,124,122,125,124,125,0,1764980886.671159
126,125,125,124,122,124,125,126,0,1764980886.671161
126,124,125,124,123,123,125,125,0,1764980886.6711628
125,124,125,124,124,123,124,125,0,1764980886.6711655
125,123,125,123,125,124,124,124,0,1764980886.7014298
125,123,125,123,125,124,123,123,0,1764980886.7014332
125,124,124,123,125,123,123,123,0,1764980886.7014353
125,124,124,123,124,122,124,123,0,1764980886.701438
125,125,124,123,123,122,125,124,0,1764980886.70144
125,125,123,124,122,122,125,125,0,1764980886.7014468
125,124,123,124,121,122,125,125,0,1764980886.7014494
125,123,123,124,121,124,124,124,0,1764980886.7014565
