emg0,emg1,emg2,emg3,emg4,emg5,emg6,emg7,label,timestamp
124,123,123,124,122,124,127,124,0,1764980939.6859102
124,124,123,124,123,124,126,123,0,1764980939.6859262
123,123,124,124,123,124,125,123,0,1764980939.685933
123,123,124,124,123,124,124,124,0,1764980939.685945
123,123,124,124,123,124,123,123,0,1764980939.6859603
124,123,124,124,123,123,123,124,0,1764980939.6859658
126,124,124,124,123,122,123,125,0,1764980939.6859713
127,124,124,124,122,123,124,126,0,1764980939.6859763
127,125,124,124,123,123,124,126,0,1764980939.6859813
127,125,124,124,124,123,126,125,0,1764980939.6859863
127,124,124,124,124,124,125,124,0,1764980939.6859918
126,124,124,124,124,126,124,123,0,1764980939.685997
126,124,124,124,124,126,123,123,0,1764980939.6860018
126,124,125,124,124,126,122,123,0,1764980939.6860065
126,125,125,124,123,126,121,125,0,1764980939.686011
126,125,124,124,123,125,123,126,0,1764980939.686023
126,125,124,124,123,124,125,126,0,1764980939.7062063
126,125,124,124,123,124,126,126,0,1764980939.7062154
125,124,124,124,123,125,126,125,0,1764980939.706221
125,124,124,123,123,124,125,123,0,1764980939.7062259
126,123,124,123,123,125,123,123,0,1764980939.7062309
126,123,124,123,123,125,123,124,0,1764980939.706236
126,123,124,123,123,124,123,124,0,1764980939.7062411
126,123,124,123,123,123,123,125,0,1764980939.7062461
126,124,123,123,124,123,125,126,0,1764980939.7062597
125,124,123,124,125,122,125,126,0,1764980939.7062654
125,124,123,124,125,122,125,125,0,1764980939.7062702
125,124,123,125,125,122,124,125,0,1764980939.706275
125,124,123,125,124,123,123,124,0,1764980939.7062798
125,124,124,125,124,124,123,124,0,1764980939.7062845
125,124,124,124,123,124,123,124,0,1764980939.706289
125,124,124,123,122,123,123,125,0,1764980939.7063012
125,124,124,123,122,123,124,125,0,1764980939.756748
125,124,124,123,123,123,125,126,0,1764980939.7567563
125,124,124,123,123,124,124,126,0,1764980939.756761
125,124,124,123,123,124,124,125,0,1764980939.7567658
125,124,124,124,123,124,123,124,0,1764980939.7567708
125,124,124,124,123,125,123,123,0,1764980939.7567756
125,124,124,124,123,124,123,123,0,1764980939.7567806
125,124,124,124,123,124,123,123,0,1764980939.7567852
126,124,124,124,124,124,125,123,0,1764980939.7567897
126,124,124,124,124,124,125,124,0,1764980939.7567947
126,124,123,124,124,125,125,124,0,1764980939.7567995
126,124,124,124,124,125,125,124,0,1764980939.756804
125,124,124,124,124,125,124,123,0,1764980939.7568088
125,123,124,124,123,125,122,122,0,1764980939.756813
125,123,124,123,123,124,121,123,0,1764980939.7568176
125,123,124,123,123,124,122,123,0,1764980939.756825
125,124,124,124,123,123,123,125,0,1764980939.7770243
125,124,124,124,124,123,124,125,0,1764980939.777032
126,124,124,124,123,124,125,125,0,1764980939.7770371
126,124,124,124,123,124,125,125,0,1764980939.777042
126,124,124,124,123,125,125,123,0,1764980939.7770472
125,124,124,124,123,126,124,122,0,1764980939.7770522
125,123,124,124,123,126,124,122,0,1764980939.7770567
124,124,124,123,123,125,124,123,0,1764980939.7770617
124,124,124,124,124,124,125,123,0,1764980939.7770667
124,124,124,123,123,124,125,124,0,1764980939.7770717
125,124,124,124,123,123,126,125,0,1764980939.7770765
125,124,123,124,123,123,126,124,0,1764980939.7770813
125,123,123,124,123,124,125,123,0,1764980939.7770863
125,123,123,124,123,124,125,123,0,1764980939.7770908
125,124,124,124,124,124,124,123,0,1764980939.7770958
125,124,124,124,125,124,123,124,0,1764980939.7771075
125,125,124,124,126,124,123,124,0,1764980939.7972488
125,125,125,125,126,125,124,126,0,1764980939.7972553
126,125,125,124,125,124,125,127,0,1764980939.79726
126,124,124,124,124,125,125,127,0,1764980939.7972648
126,124,124,123,124,124,124,126,0,1764980939.7972696
125,123,124,123,123,124,123,124,0,1764980939.797274
125,123,124,123,122,124,122,123,0,1764980939.7972786
124,124,124,124,123,124,122,123,0,1764980939.7972836
125,124,124,124,122,124,122,123,0,1764980939.7972882
125,124,124,124,122,124,123,124,0,1764980939.7972927
125,124,124,124,123,124,124,125,0,1764980939.7972977
126,125,124,124,123,123,124,125,0,1764980939.7973025
126,124,124,124,123,123,123,125,0,1764980939.7973142
125,124,124,124,124,124,122,125,0,1764980939.7973197
125,124,124,124,123,124,122,124,0,1764980939.7973282
125,124,124,123,123,124,122,124,0,1764980939.7973337
125,123,124,124,122,124,122,123,0,1764980939.8477952
125,124,124,124,122,124,123,123,0,1764980939.8478048
125,124,124,124,122,123,125,123,0,1764980939.8478103
125,124,124,124,123,123,126,123,0,1764980939.8478158
125,124,124,124,124,123,126,124,0,1764980939.8478205
125,124,124,124,125,123,126,124,0,1764980939.847825
125,124,125,124,125,124,126,124,0,1764980939.8478298
125,124,125,124,125,125,125,124,0,1764980939.8478346
125,124,125,124,124,125,124,124,0,1764980939.847839
125,124,124,124,123,124,125,123,0,1764980939.8478441
125,124,124,124,122,123,125,124,0,1764980939.847849
126,124,123,123,122,122,125,124,0,1764980939.8478541
126,124,123,123,123,122,125,124,0,1764980939.8478591
125,124,123,124,124,122,124,124,0,1764980939.8478646
125,123,123,124,124,123,121,124,0,1764980939.8478694
125,123,123,124,125,123,120,124,0,1764980939.847881
124,124,124,124,124,124,121,124,0,1764980939.8680701
125,124,124,124,124,124,121,124,0,1764980939.8680768
125,124,124,123,123,124,122,125,0,1764980939.8680818
125,125,124,123,123,124,124,126,0,1764980939.868087
125,124,124,123,123,124,124,125,0,1764980939.8680918
125,124,124,123,122,124,124,125,0,1764980939.8680968
125,124,124,123,123,125,124,123,0,1764980939.8681018
125,124,124,123,123,125,123,122,0,1764980939.8681066
125,124,124,123,123,124,122,121,0,1764980939.8681114
125,124,123,123,123,125,121,122,0,1764980939.8681161
126,124,123,123,124,124,122,123,0,1764980939.8681273
126,124,124,124,124,124,123,124,0,1764980939.8681328
126,124,124,124,124,124,124,125,0,1764980939.8681378
126,124,124,124,124,124,124,125,0,1764980939.868149
126,124,125,125,124,124,124,125,0,1764980939.8681543
125,123,125,125,124,124,124,124,0,1764980939.8681655
125,123,125,124,124,124,124,124,0,1764980939.9086826
125,124,124,124,124,124,125,124,0,1764980939.9086869
126,124,125,124,124,124,127,124,0,1764980939.9086893
127,124,124,124,123,124,127,126,0,1764980939.9086914
127,125,124,124,123,124,128,126,0,1764980939.9086936
127,124,124,124,123,124,126,126,0,1764980939.9086952
126,124,124,124,123,125,125,124,0,1764980939.9086974
125,124,125,124,124,125,123,123,0,1764980939.908699
124,124,125,124,124,125,123,122,0,1764980939.908701
124,124,125,125,124,125,123,122,0,1764980939.908703
125,124,125,125,124,125,123,123,0,1764980939.9087048
125,124,124,124,124,125,124,124,0,1764980939.9087121
126,124,124,124,124,124,125,125,0,1764980939.9087143
126,124,124,123,125,124,125,124,0,1764980939.908716
126,124,123,124,124,125,125,125,0,1764980939.9087193
125,123,123,124,124,125,124,124,0,1764980939.9087214
125,123,123,124,123,124,123,123,0,1764980939.9289412
125,123,123,124,123,125,123,123,0,1764980939.928946
125,123,123,124,123,125,123,124,0,1764980939.9289484
124,123,124,123,122,124,123,124,0,1764980939.9289508
125,123,124,123,122,124,123,125,0,1764980939.9289532
125,123,124,123,122,124,123,125,0,1764980939.928955
125,124,124,123,122,123,122,124,0,1764980939.9289575
125,123,124,123,123,123,122,123,0,1764980939.9289634
125,123,124,124,125,123,122,122,0,1764980939.9289658
125,123,123,123,125,123,122,122,0,1764980939.928968
124,123,124,123,125,123,123,123,0,1764980939.9289742
125,123,124,124,124,124,124,124,0,1764980939.9289763
125,124,124,124,123,124,125,124,0,1764980939.9289787
125,124,124,124,122,124,126,124,0,1764980939.928981
126,124,124,124,123,124,126,125,0,1764980939.9289918
126,124,124,124,123,123,125,125,0,1764980939.9289944
126,124,124,123,123,123,124,125,0,1764980939.9795058
126,123,124,123,123,123,122,125,0,1764980939.9795103
126,123,124,123,123,123,122,124,0,1764980939.9795127
126,123,124,123,123,123,124,124,0,1764980939.979515
125,123,124,123,123,123,126,123,0,1764980939.9795175
125,123,124,123,123,123,127,124,0,1764980939.9795196
125,124,124,123,122,123,127,124,0,1764980939.9795218
124,124,123,123,122,124,126,124,0,1764980939.9795241
124,124,123,124,123,124,125,123,0,1764980939.9795306
124,125,124,124,123,125,123,123,0,1764980939.979533
125,125,124,125,123,125,123,123,0,1764980939.979535
125,125,124,125,123,125,123,124,0,1764980939.9795372
126,125,125,125,123,124,124,126,0,1764980939.9795394
126,124,124,125,124,123,126,126,0,1764980939.979547
126,124,124,124,124,123,127,126,0,1764980939.9795494
125,123,124,123,125,123,125,126,0,1764980939.9795518
125,123,124,123,125,124,124,124,0,1764980939.9997358
125,124,124,124,125,125,123,122,0,1764980939.99974
125,124,125,124,125,126,122,122,0,1764980939.9997427
125,124,125,125,125,126,122,122,0,1764980939.9997454
126,125,125,126,125,126,124,123,0,1764980939.9997475
126,125,125,126,125,125,125,124,0,1764980939.99975
126,124,124,125,124,124,124,124,0,1764980939.9997525
125,124,124,125,123,124,124,124,0,1764980939.9997547
125,124,124,124,122,124,123,124,0,1764980939.9997568
125,123,123,124,122,124,122,123,0,1764980939.9997592
124,124,124,124,123,124,121,123,0,1764980939.9997613
125,124,124,123,123,124,122,124,0,1764980939.9997637
125,124,124,123,123,124,123,125,0,1764980939.999766
125,124,124,123,123,124,125,125,0,1764980939.9997685
125,124,124,123,123,124,127,126,0,1764980939.9997706
126,124,124,123,124,125,127,127,0,1764980939.9997737
126,124,124,123,124,125,126,125,0,1764980940.0503328
126,124,124,124,124,125,125,124,0,1764980940.050345
126,124,125,124,125,125,123,123,0,1764980940.0503473
125,123,124,124,125,124,122,123,0,1764980940.0503497
125,123,124,124,124,124,122,123,0,1764980940.050352
125,124,123,124,124,123,123,124,0,1764980940.0503545
125,124,123,124,124,122,124,125,0,1764980940.0503566
125,124,123,124,123,123,125,126,0,1764980940.0503588
125,124,124,124,123,123,125,126,0,1764980940.0503657
125,124,124,125,123,124,125,125,0,1764980940.050368
125,124,125,125,123,125,124,124,0,1764980940.0503702
125,124,125,125,123,125,123,124,0,1764980940.0503726
125,124,125,124,123,124,122,123,0,1764980940.050375
125,124,125,124,124,124,123,123,0,1764980940.050377
126,124,124,123,123,123,125,123,0,1764980940.050379
125,124,124,123,123,122,125,123,0,1764980940.0503817
125,124,124,123,123,122,126,123,0,1764980940.0705495
125,123,124,123,123,123,125,123,0,1764980940.0705543
124,123,123,123,123,124,123,123,0,1764980940.0705569
124,123,123,123,123,124,121,123,0,1764980940.0705595
124,123,123,123,122,124,121,124,0,1764980940.0705616
124,124,124,124,123,124,122,125,0,1764980940.0705638
125,124,124,124,122,123,123,125,0,1764980940.0705664
126,124,124,124,122,123,125,125,0,1764980940.0705686
126,125,124,124,123,123,126,126,0,1764980940.0705707
126,124,124,125,123,123,126,125,0,1764980940.070573
126,124,124,124,123,124,126,124,0,1764980940.0705755
125,123,124,124,124,125,124,123,0,1764980940.0705817
125,123,124,124,124,125,123,123,0,1764980940.0705843
124,123,124,124,124,125,122,123,0,1764980940.0705867
125,124,124,123,124,125,122,123,0,1764980940.0705888
125,124,124,123,124,125,123,123,0,1764980940.0705929
125,124,124,124,124,124,125,124,0,1764980940.0908222
125,124,124,124,124,124,126,123,0,1764980940.0908267
125,124,124,124,124,125,126,122,0,1764980940.0908294
126,124,124,124,123,125,125,122,0,1764980940.0908315
126,124,124,124,124,126,124,122,0,1764980940.090834
126,124,124,124,124,125,123,123,0,1764980940.090844
127,125,124,125,124,125,123,125,0,1764980940.0908465
126,125,124,124,123,123,124,126,0,1764980940.0908484
126,125,124,124,124,123,126,126,0,1764980940.0908508
126,125,124,124,124,122,127,126,0,1764980940.0908532
125,124,124,124,124,122,126,124,0,1764980940.0908551
125,124,124,124,124,123,124,123,0,1764980940.0908575
125,125,124,124,125,124,123,123,0,1764980940.09086
125,125,124,124,124,124,122,123,0,1764980940.0908618
125,125,125,124,124,125,122,123,0,1764980940.090864
125,124,124,124,123,124,123,125,0,1764980940.0908663
125,124,124,124,122,124,125,126,0,1764980940.141297
125,123,123,123,122,124,125,127,0,1764980940.1413014
126,123,123,123,122,124,125,127,0,1764980940.141304
125,123,123,123,123,124,124,126,0,1764980940.1413064
124,123,123,123,123,125,123,125,0,1764980940.1413128
124,124,124,123,124,125,122,123,0,1764980940.141315
124,124,125,124,125,126,122,122,0,1764980940.1413174
125,125,125,124,125,126,123,123,0,1764980940.1413198
125,125,125,125,125,125,124,124,0,1764980940.1413217
126,125,124,125,124,125,125,125,0,1764980940.1413264
126,124,124,125,124,124,125,125,0,1764980940.141328
126,123,124,125,123,123,124,124,0,1764980940.1413305
125,123,123,124,123,123,123,123,0,1764980940.1413324
125,123,123,123,122,123,122,122,0,1764980940.141335
125,123,123,123,122,123,121,123,0,1764980940.1413372
125,123,123,123,122,123,122,123,0,1764980940.1413395
125,124,123,123,122,123,123,124,0,1764980940.181641
125,124,123,123,122,124,124,125,0,1764980940.1816456
125,124,124,123,123,124,125,125,0,1764980940.181648
125,123,124,124,123,125,125,125,0,1764980940.1816502
125,123,124,124,124,125,124,125,0,1764980940.1816525
125,123,125,124,124,124,124,124,0,1764980940.1816545
125,123,125,124,124,124,124,123,0,1764980940.1816566
126,124,124,124,124,124,123,123,0,1764980940.181659
126,124,124,124,123,123,123,123,0,1764980940.181661
126,125,124,124,123,123,124,124,0,1764980940.181663
126,125,123,124,122,123,124,124,0,1764980940.181665
125,124,123,124,122,123,123,124,0,1764980940.181667
125,124,123,123,123,124,123,124,0,1764980940.1816692
125,124,124,123,124,125,123,123,0,1764980940.1816711
125,124,124,124,124,125,123,123,0,1764980940.1816733
125,124,125,124,124,125,124,123,0,1764980940.1816757
126,124,125,124,124,125,124,123,0,1764980940.2018497
125,124,125,124,124,125,125,123,0,1764980940.2018538
125,124,124,124,123,125,125,123,0,1764980940.2018564
124,124,124,124,122,125,125,123,0,1764980940.2018583
124,123,123,123,122,125,124,123,0,1764980940.2018607
124,124,124,123,123,124,123,123,0,1764980940.2018626
124,124,124,124,124,124,123,124,0,1764980940.2018652
126,124,125,124,125,124,124,125,0,1764980940.2018676
126,124,125,125,125,124,124,125,0,1764980940.2018697
127,124,125,125,124,125,125,126,0,1764980940.201872
128,124,125,125,124,124,126,127,0,1764980940.2018743
127,123,124,124,124,124,126,126,0,1764980940.2018764
126,123,124,124,123,124,124,124,0,1764980940.2018785
125,123,123,124,123,124,123,123,0,1764980940.201881
125,124,123,123,124,123,121,122,0,1764980940.2018828
124,124,123,123,124,123,120,122,0,1764980940.201889
125,124,123,123,123,123,121,124,0,1764980940.2321682
125,124,123,123,122,123,123,125,0,1764980940.232172
125,125,123,123,121,123,124,125,0,1764980940.2321746
126,125,124,124,121,124,126,125,0,1764980940.2321765
126,124,124,125,122,124,126,125,0,1764980940.2321792
126,124,124,125,122,125,125,123,0,1764980940.2321815
125,123,125,125,124,124,124,123,0,1764980940.2321842
125,123,124,125,125,124,124,124,0,1764980940.2321863
125,123,124,124,125,124,123,124,0,1764980940.2321928
125,123,124,124,124,124,124,125,0,1764980940.2321951
125,123,123,123,124,123,125,126,0,1764980940.2321973
125,124,124,123,123,124,125,126,0,1764980940.2321994
125,124,124,123,123,124,125,125,0,1764980940.2322018
125,123,124,123,124,125,124,124,0,1764980940.232204
125,123,124,123,124,125,124,123,0,1764980940.2322063
125,123,124,123,124,125,122,123,0,1764980940.232209
125,123,124,123,124,125,123,123,0,1764980940.2523658
125,123,124,123,123,124,124,123,0,1764980940.2523813
125,124,123,123,122,123,126,124,0,1764980940.2523837
125,125,123,124,122,124,126,125,0,1764980940.252386
125,124,123,124,122,124,126,125,0,1764980940.2523887
125,124,123,124,122,124,126,125,0,1764980940.2523906
125,124,123,124,122,124,124,124,0,1764980940.252393
125,123,124,124,122,124,123,123,0,1764980940.252395
125,123,124,124,122,123,122,123,0,1764980940.252397
125,123,124,123,122,123,123,122,0,1764980940.2523994
125,124,124,124,122,123,124,123,0,1764980940.2524016
125,124,124,124,122,123,125,124,0,1764980940.2524037
125,124,124,124,123,123,126,125,0,1764980940.2524126
125,124,124,124,124,124,125,125,0,1764980940.252415
125,124,124,124,124,124,124,124,0,1764980940.2524173
125,124,124,124,124,124,122,123,0,1764980940.25242
125,123,124,123,124,124,120,123,0,1764980940.2929523
125,124,123,123,124,124,121,123,0,1764980940.292957
126,124,123,123,123,124,122,124,0,1764980940.2929597
126,124,123,123,123,125,124,125,0,1764980940.292962
126,124,123,123,123,125,126,126,0,1764980940.2929647
126,124,123,123,123,125,126,125,0,1764980940.2929668
126,124,124,124,123,126,126,125,0,1764980940.2929692
125,124,124,124,123,125,125,124,0,1764980940.2929714
125,124,125,124,124,125,124,125,0,1764980940.2929735
125,124,125,124,125,125,124,124,0,1764980940.2929757
126,125,125,125,126,124,124,124,0,1764980940.2929776
126,125,124,125,126,124,125,124,0,1764980940.2930374
126,125,124,124,125,123,126,125,0,1764980940.29304
126,125,124,124,125,124,126,125,0,1764980940.2930424
125,125,124,124,125,124,125,126,0,1764980940.2930534
125,124,124,123,124,124,124,125,0,1764980940.293056
125,125,124,123,123,124,124,125,0,1764980940.313357
125,125,125,123,123,124,123,125,0,1764980940.3133616
126,124,124,124,123,123,123,125,0,1764980940.3133643
125,124,124,124,123,123,123,125,0,1764980940.3133662
125,124,124,124,123,123,124,125,0,1764980940.3133688
125,123,124,124,124,123,124,125,0,1764980940.3133745
124,123,123,124,124,124,124,124,0,1764980940.3133767
124,123,124,124,124,124,124,123,0,1764980940.313379
124,122,124,123,124,124,123,122,0,1764980940.3133812
124,122,124,123,124,124,123,122,0,1764980940.313383
124,123,124,123,123,124,123,122,0,1764980940.3133888
125,123,124,123,122,124,124,123,0,1764980940.3133912
125,123,124,123,122,124,125,123,0,1764980940.313393
126,124,124,123,122,124,127,124,0,1764980940.3133955
126,124,124,124,123,124,127,124,0,1764980940.3133974
126,124,124,124,123,125,126,124,0,1764980940.313401
126,124,124,124,124,125,125,124,0,1764980940.3637235
126,124,124,123,124,125,124,124,0,1764980940.363728
125,125,124,123,123,124,123,124,0,1764980940.3637304
125,125,124,124,123,124,124,124,0,1764980940.363733
126,125,124,124,123,123,125,124,0,1764980940.3637352
125,125,124,124,122,123,126,124,0,1764980940.3637376
125,125,124,124,122,123,125,124,0,1764980940.3637402
125,124,124,124,123,124,124,124,0,1764980940.363742
125,124,125,124,123,124,122,124,0,1764980940.3637445
125,124,125,124,124,125,121,124,0,1764980940.3637466
125,124,125,124,124,125,121,124,0,1764980940.3637486
125,124,125,124,124,125,122,124,0,1764980940.363751
125,124,124,124,124,124,123,124,0,1764980940.3637533
125,124,124,123,123,123,124,124,0,1764980940.3637555
125,124,124,124,123,123,125,124,0,1764980940.3637576
125,124,123,123,123,123,125,124,0,1764980940.3637602
125,123,123,123,124,124,124,125,0,1764980940.3839707
124,123,123,123,124,124,123,125,0,1764980940.38398
124,123,123,123,124,124,122,124,0,1764980940.383983
124,123,124,123,123,124,123,124,0,1764980940.383985
125,123,124,122,123,123,123,125,0,1764980940.3839877
125,123,124,122,123,122,124,124,0,1764980940.38399
126,124,124,123,123,122,125,124,0,1764980940.3839924
126,124,124,123,123,122,124,124,0,1764980940.3839946
126,124,124,123,124,122,123,123,0,1764980940.383997
126,124,123,123,125,124,122,123,0,1764980940.3839993
125,124,123,124,125,125,120,123,0,1764980940.3840013
124,123,123,123,124,125,120,123,0,1764980940.3840039
125,124,124,124,123,125,121,124,0,1764980940.3840058
125,124,124,124,123,124,123,124,0,1764980940.3840082
126,124,124,124,122,124,124,125,0,1764980940.3840106
126,124,125,124,123,124,126,125,0,1764980940.384013
126,124,124,124,123,125,126,125,0,1764980940.4042099
126,124,124,124,124,125,125,125,0,1764980940.4042258
125,123,124,124,124,126,124,124,0,1764980940.4042287
125,123,124,124,124,125,124,124,0,1764980940.4042308
125,124,124,124,124,125,125,124,0,1764980940.404233
124,124,124,124,123,125,125,124,0,1764980940.4042354
125,124,125,124,123,124,126,125,0,1764980940.4042375
125,124,124,124,122,123,126,125,0,1764980940.4042397
125,124,124,124,122,123,125,124,0,1764980940.404242
125,124,124,124,123,122,124,124,0,1764980940.4042442
126,124,124,124,123,123,123,123,0,1764980940.4042497
126,124,124,124,123,123,123,123,0,1764980940.404252
126,124,124,124,124,124,123,123,0,1764980940.4042542
126,124,124,124,124,124,124,123,0,1764980940.4042583
126,125,124,124,123,124,124,124,0,1764980940.4042606
126,125,124,124,123,124,124,124,0,1764980940.4042633
126,125,124,123,123,124,124,124,0,1764980940.4546819
126,124,124,123,123,124,123,123,0,1764980940.4546866
126,124,124,123,123,124,122,123,0,1764980940.4546893
125,124,124,123,123,124,122,123,0,1764980940.454692
125,124,124,123,123,124,122,123,0,1764980940.454694
125,124,124,123,122,124,123,124,0,1764980940.4546964
124,124,124,123,122,124,124,125,0,1764980940.454699
124,125,124,124,122,123,125,124,0,1764980940.4547014
125,124,124,124,122,123,125,124,0,1764980940.4547036
125,124,124,124,123,124,124,124,0,1764980940.454706
125,124,124,124,124,124,124,123,0,1764980940.4547083
124,123,124,124,124,125,123,123,0,1764980940.4547102
125,123,124,124,123,125,122,123,0,1764980940.4547129
125,123,123,124,124,124,123,124,0,1764980940.4547153
125,123,123,123,123,124,123,124,0,1764980940.4547174
125,124,123,123,123,124,125,125,0,1764980940.4547281
126,124,123,123,122,124,127,124,0,1764980940.4749403
126,124,123,123,123,124,126,124,0,1764980940.474945
125,123,124,123,123,124,125,123,0,1764980940.4749472
125,123,124,124,123,124,124,122,0,1764980940.4749494
125,123,124,124,123,124,123,121,0,1764980940.4749515
124,123,124,124,123,124,122,122,0,1764980940.4749532
125,123,124,124,123,123,123,123,0,1764980940.4749553
125,124,124,124,123,123,124,124,0,1764980940.4749935
125,124,124,124,123,123,125,126,0,1764980940.4749963
125,124,124,123,123,124,125,126,0,1764980940.4750016
125,124,124,123,123,124,125,125,0,1764980940.4750042
125,124,124,124,124,125,124,125,0,1764980940.4750094
126,124,124,124,124,126,123,125,0,1764980940.4750123
126,125,125,125,124,126,123,125,0,1764980940.4750147
127,125,125,125,125,125,125,126,0,1764980940.4750173
127,125,125,125,124,124,126,126,0,1764980940.475021
127,124,125,125,124,123,127,126,0,1764980940.5153332
127,124,125,124,124,123,127,126,0,1764980940.5153368
126,123,124,124,124,123,127,125,0,1764980940.515339
125,123,124,123,124,123,125,125,0,1764980940.5153415
124,123,124,123,123,124,124,125,0,1764980940.515344
124,123,124,123,123,124,123,125,0,1764980940.5153463
124,123,124,123,123,124,123,125,0,1764980940.5153487
125,124,124,124,123,124,123,125,0,1764980940.5153508
126,125,124,124,122,124,124,125,0,1764980940.5153532
126,125,124,124,123,124,124,125,0,1764980940.5153553
126,125,124,124,124,124,124,124,0,1764980940.515358
126,125,124,123,125,124,124,123,0,1764980940.51536
125,124,123,123,125,125,123,122,0,1764980940.5153623
125,124,123,123,125,125,123,122,0,1764980940.5153644
125,124,123,123,124,124,124,123,0,1764980940.5153663
125,124,124,123,123,123,125,124,0,1764980940.5153768
125,124,124,123,122,123,125,125,0,1764980940.565766
125,124,124,123,122,123,125,125,0,1764980940.5657709
126,124,124,123,122,123,125,125,0,1764980940.5657732
125,124,124,123,123,123,124,124,0,1764980940.5657759
125,124,123,124,122,124,122,123,0,1764980940.5657783
125,124,123,124,123,124,122,123,0,1764980940.5657804
125,123,123,124,123,125,123,123,0,1764980940.565783
125,123,124,124,123,125,123,123,0,1764980940.5657854
125,123,124,124,123,124,124,123,0,1764980940.5657876
125,124,124,124,123,124,125,123,0,1764980940.5657897
125,124,124,124,123,124,125,123,0,1764980940.565792
125,124,124,123,123,124,124,123,0,1764980940.565794
125,124,124,123,124,124,123,123,0,1764980940.5657966
125,124,124,123,125,125,122,123,0,1764980940.565802
125,124,124,123,125,124,122,124,0,1764980940.5658083
126,125,125,123,124,124,122,125,0,1764980940.5658112
126,125,125,124,124,124,123,125,0,1764980940.5860393
126,124,125,124,123,123,124,126,0,1764980940.5860438
125,123,124,124,123,123,125,126,0,1764980940.5860465
125,123,124,124,122,123,125,125,0,1764980940.5860488
124,123,124,124,123,123,125,124,0,1764980940.586051
124,123,124,124,124,123,124,123,0,1764980940.5860572
124,123,124,124,124,124,124,123,0,1764980940.5860596
125,124,124,124,124,124,124,123,0,1764980940.5860617
125,124,124,124,124,124,123,124,0,1764980940.5860639
126,124,124,124,124,124,123,125,0,1764980940.5860662
125,124,124,124,124,123,124,126,0,1764980940.5860693
125,124,124,124,124,123,124,126,0,1764980940.5860713
125,124,123,124,124,123,124,125,0,1764980940.5860734
125,123,123,124,124,124,124,124,0,1764980940.5860755
125,123,123,124,124,125,124,123,0,1764980940.5860817
125,124,124,124,124,126,124,122,0,1764980940.5860844
126,124,124,124,124,126,125,123,0,1764980940.6264646
126,125,124,124,123,125,125,124,0,1764980940.626469
126,125,124,124,123,125,125,125,0,1764980940.6264715
126,124,124,125,123,124,125,125,0,1764980940.6264737
126,124,124,124,123,124,124,125,0,1764980940.626476
126,123,124,124,123,124,123,124,0,1764980940.6264782
126,123,124,124,123,125,122,123,0,1764980940.6264803
125,124,124,124,124,125,123,123,0,1764980940.6264825
125,124,124,123,124,124,122,123,0,1764980940.6264846
125,124,124,123,123,124,123,124,0,1764980940.6264868
125,124,124,123,123,123,123,125,0,1764980940.6264892
125,124,124,123,122,123,124,125,0,1764980940.6264913
125,123,124,124,122,122,124,125,0,1764980940.6264935
125,123,124,124,122,122,124,125,0,1764980940.6264958
124,123,124,125,124,123,123,124,0,1764980940.626498
125,124,124,125,124,124,124,123,0,1764980940.6265004
125,124,124,124,123,124,123,123,0,1764980940.6366086
125,125,124,124,122,124,122,124,0,1764980940.6366112
125,125,124,123,122,124,123,125,0,1764980940.6366136
125,125,123,123,122,123,124,126,0,1764980940.636616
125,124,123,123,123,123,123,126,0,1764980940.6366231
125,124,123,123,124,123,123,126,0,1764980940.636625
125,123,123,123,124,124,123,125,0,1764980940.6366274
125,123,124,123,124,125,123,124,0,1764980940.6366298
125,123,124,123,123,124,122,124,0,1764980940.636632
125,124,124,123,123,125,123,123,0,1764980940.636634
126,124,124,123,123,125,124,124,0,1764980940.6366363
126,124,124,123,123,124,125,123,0,1764980940.6366382
126,124,124,124,123,123,125,124,0,1764980940.6366405
125,124,123,123,124,124,125,123,0,1764980940.6366425
125,123,123,123,124,124,123,123,0,1764980940.6366446
124,123,123,123,124,124,122,123,0,1764980940.636647
124,123,123,123,124,124,123,123,0,1764980940.677028
124,123,123,124,124,124,124,124,0,1764980940.6770327
125,124,124,124,123,124,125,124,0,1764980940.6770353
125,124,124,124,123,123,126,124,0,1764980940.6770375
125,125,124,124,123,124,127,123,0,1764980940.6770399
125,125,124,124,123,124,126,123,0,1764980940.6770422
126,125,124,124,124,125,125,122,0,1764980940.6770446
126,124,125,124,124,125,122,122,0,1764980940.677047
126,124,125,124,124,124,121,122,0,1764980940.6770494
126,124,125,124,124,124,120,123,0,1764980940.6770515
126,124,125,124,124,124,120,124,0,1764980940.6770537
125,123,124,123,124,124,122,124,0,1764980940.677056
125,124,124,123,123,124,123,124,0,1764980940.6770582
124,124,124,124,123,125,124,124,0,1764980940.6770606
124,124,124,124,123,125,125,123,0,1764980940.677063
124,124,124,124,123,125,125,123,0,1764980940.6770654
125,124,124,124,124,126,124,123,0,1764980940.697268
126,125,125,124,125,126,123,123,0,1764980940.6972723
126,125,125,124,126,125,124,125,0,1764980940.697275
126,125,125,124,126,124,124,126,0,1764980940.6972775
126,125,124,124,125,123,124,127,0,1764980940.6972797
125,124,124,124,125,122,125,127,0,1764980940.697282
125,123,124,124,124,122,125,126,0,1764980940.6972845
124,122,124,124,124,122,124,125,0,1764980940.6972866
124,123,124,124,124,123,124,124,0,1764980940.6972888
125,123,124,124,123,123,124,124,0,1764980940.697291
125,123,124,124,123,123,124,125,0,1764980940.6972933
126,124,124,124,122,124,125,124,0,1764980940.6972957
126,124,124,124,122,124,126,125,0,1764980940.6972978
126,124,123,124,122,123,126,124,0,1764980940.6973
126,124,123,123,122,124,127,124,0,1764980940.6973093
125,124,124,123,123,124,126,123,0,1764980940.6973116
125,124,124,123,123,124,125,123,0,1764980940.7475903
124,124,124,123,123,124,124,123,0,1764980940.747595
125,124,124,123,123,124,123,123,0,1764980940.7475975
125,124,124,123,123,123,123,123,0,1764980940.7476
125,124,123,123,123,123,123,123,0,1764980940.7476022
125,123,123,123,122,123,123,124,0,1764980940.7476044
126,123,123,123,122,123,122,125,0,1764980940.7476106
125,123,123,124,122,125,122,124,0,1764980940.7476127
125,123,124,124,123,126,122,124,0,1764980940.7476149
125,123,124,124,124,126,122,124,0,1764980940.7476172
124,124,124,124,125,125,123,124,0,1764980940.7476199
125,124,124,124,125,125,124,124,0,1764980940.7476218
125,124,123,124,124,124,125,124,0,1764980940.747624
125,124,123,124,123,124,125,125,0,1764980940.7476263
125,124,123,124,123,124,125,125,0,1764980940.7476285
125,124,124,124,123,125,124,124,0,1764980940.7476313
125,124,123,123,122,125,123,123,0,1764980940.7678173
125,123,124,123,123,124,122,123,0,1764980940.7678216
125,123,124,123,123,123,122,123,0,1764980940.767824
125,124,124,123,123,123,123,123,0,1764980940.767826
125,124,124,123,123,122,123,124,0,1764980940.7678287
126,124,124,124,124,122,124,125,0,1764980940.767831
126,124,124,124,124,122,124,124,0,1764980940.7678332
125,124,124,124,124,123,124,124,0,1764980940.7678359
125,123,124,123,123,124,124,124,0,1764980940.767838
125,124,124,123,123,124,124,124,0,1764980940.7678401
124,124,124,123,123,124,124,124,0,1764980940.7678425
125,124,124,123,123,124,125,124,0,1764980940.767845
125,124,124,123,122,123,126,124,0,1764980940.7678468
125,124,124,124,122,123,126,125,0,1764980940.767853
126,124,124,124,122,123,127,126,0,1764980940.7678554
126,124,124,124,122,124,127,125,0,1764980940.7678618
126,124,124,124,122,125,126,125,0,1764980940.7880676
126,124,124,124,123,125,125,124,0,1764980940.7880776
126,124,124,124,124,125,125,123,0,1764980940.7880802
126,124,124,124,124,125,124,122,0,1764980940.7880824
126,125,124,124,124,125,125,123,0,1764980940.7880847
126,125,124,124,123,125,125,124,0,1764980940.7880871
126,125,125,124,123,124,125,125,0,1764980940.7880893
125,124,125,124,123,123,124,124,0,1764980940.7880917
125,124,125,124,124,123,123,124,0,1764980940.7880938
125,123,124,124,123,123,122,123,0,1764980940.7880962
125,123,124,124,124,124,122,123,0,1764980940.7880983
125,123,124,124,124,124,122,123,0,1764980940.7881007
125,123,124,124,124,124,122,124,0,1764980940.7881026
125,123,123,124,123,123,123,125,0,1764980940.7881048
125,124,123,124,123,123,123,126,0,1764980940.7881112
125,124,123,124,123,122,123,126,0,1764980940.7881136
124,124,123,124,123,123,123,126,0,1764980940.8384025
124,124,123,124,124,124,123,124,0,1764980940.8384063
124,123,124,124,124,125,122,123,0,1764980940.838409
124,124,124,124,124,125,122,122,0,1764980940.8384113
125,124,124,124,125,126,123,123,0,1764980940.8384402
126,124,125,124,124,125,124,124,0,1764980940.8384426
126,125,124,124,124,125,124,125,0,1764980940.8384447
126,125,124,124,123,124,125,126,0,1764980940.838447
126,124,124,124,123,123,125,125,0,1764980940.8384495
125,124,124,124,123,123,123,124,0,1764980940.838455
124,123,124,124,123,123,122,122,0,1764980940.8384573
124,124,124,123,123,123,122,121,0,1764980940.8384595
124,124,124,123,122,123,121,121,0,1764980940.8384614
124,124,124,124,122,124,122,122,0,1764980940.8384638
125,124,124,124,123,125,124,123,0,1764980940.838467
125,124,124,124,123,124,126,124,0,1764980940.838469
125,124,124,124,123,124,125,125,0,1764980940.8586936
125,124,124,124,123,125,125,124,0,1764980940.8586974
125,124,124,124,124,125,124,124,0,1764980940.8587
124,124,124,123,124,124,123,124,0,1764980940.8587022
124,124,124,123,123,125,122,124,0,1764980940.8587046
124,124,124,123,123,124,123,124,0,1764980940.8587067
125,124,124,123,123,124,125,125,0,1764980940.858709
125,124,124,124,123,123,125,126,0,1764980940.8587112
125,123,124,124,123,123,125,125,0,1764980940.8587136
125,123,124,124,123,122,125,125,0,1764980940.858716
125,124,124,124,124,123,124,125,0,1764980940.858718
125,124,124,124,124,124,123,124,0,1764980940.8587203
125,124,124,123,123,124,122,123,0,1764980940.8587224
125,124,124,124,123,124,122,123,0,1764980940.8587246
125,124,124,124,123,125,123,124,0,1764980940.858727
125,124,124,124,123,125,123,124,0,1764980940.8587291
125,124,123,124,123,125,124,124,0,1764980940.8991182
125,124,123,124,124,125,124,125,0,1764980940.899122
125,123,124,124,124,125,124,125,0,1764980940.8991244
125,124,124,124,124,125,123,125,0,1764980940.8991268
125,124,125,124,124,125,123,125,0,1764980940.8991292
126,125,125,125,125,124,123,124,0,1764980940.8991375
126,125,125,125,124,124,123,125,0,1764980940.89914
127,125,125,125,124,124,125,126,0,1764980940.899142
126,124,124,125,124,123,125,126,0,1764980940.8991444
126,124,124,125,124,123,125,125,0,1764980940.8991466
125,124,124,124,124,124,124,125,0,1764980940.8991487
125,124,124,124,123,124,124,124,0,1764980940.8991508
124,124,123,123,123,123,123,123,0,1764980940.8991573
124,124,124,123,123,123,123,122,0,1764980940.89916
125,123,124,123,123,123,124,122,0,1764980940.8991618
125,123,124,123,124,123,125,123,0,1764980940.8991642
125,124,124,123,124,123,126,124,0,1764980940.9193668
125,123,124,123,124,124,126,125,0,1764980940.919371
125,123,124,123,123,125,126,125,0,1764980940.9193735
125,124,124,123,123,126,125,124,0,1764980940.9193761
124,124,124,123,122,126,124,123,0,1764980940.9193785
124,124,123,123,122,125,122,123,0,1764980940.9193804
125,124,123,123,122,125,122,123,0,1764980940.9193828
125,124,123,123,123,124,123,123,0,1764980940.9193852
125,124,123,123,123,123,124,125,0,1764980940.9193873
125,124,123,124,123,123,125,125,0,1764980940.9193895
125,124,124,124,123,123,126,125,0,1764980940.919392
125,124,124,124,123,124,125,124,0,1764980940.919394
125,124,124,124,124,125,124,123,0,1764980940.9193997
125,124,124,124,124,125,123,123,0,1764980940.9194016
125,124,124,124,125,124,122,123,0,1764980940.919404
126,124,124,124,125,124,123,124,0,1764980940.9194064
126,124,124,124,125,124,123,125,0,1764980940.9698918
126,124,124,124,124,123,123,125,0,1764980940.9698968
126,124,124,124,123,123,123,125,0,1764980940.969899
125,124,124,124,122,124,122,125,0,1764980940.9699013
124,124,124,124,123,124,121,123,0,1764980940.969904
124,124,124,123,122,124,121,123,0,1764980940.969906
124,124,124,123,122,124,122,123,0,1764980940.9699082
125,124,124,123,123,124,123,123,0,1764980940.9699106
126,124,124,124,123,124,126,124,0,1764980940.9699128
127,124,124,124,122,125,128,126,0,1764980940.9699152
127,124,124,124,123,125,129,126,0,1764980940.9699175
126,124,124,124,124,124,129,126,0,1764980940.9699194
126,124,124,124,124,124,128,126,0,1764980940.9699218
125,124,123,124,125,125,125,125,0,1764980940.9699237
125,123,124,125,125,124,123,123,0,1764980940.969929
124,123,124,124,125,124,122,123,0,1764980940.9699316
124,124,124,124,124,123,121,123,0,1764980941.0103085
124,124,124,124,123,122,121,123,0,1764980941.01033
124,124,124,124,122,122,122,124,0,1764980941.0103354
124,124,124,124,123,122,123,124,0,1764980941.0103378
124,124,124,123,123,123,123,122,0,1764980941.0103402
124,124,124,123,123,124,123,122,0,1764980941.0103424
125,124,124,124,124,125,123,122,0,1764980941.0103447
126,124,124,124,124,125,122,123,0,1764980941.0103474
126,124,124,124,123,125,123,124,0,1764980941.0103493
126,124,124,124,123,125,125,125,0,1764980941.0103517
126,124,124,124,122,125,127,125,0,1764980941.0103538
126,124,124,124,122,124,127,125,0,1764980941.0103562
125,123,124,124,122,124,127,125,0,1764980941.0103583
125,123,125,123,123,124,126,124,0,1764980941.0103602
125,123,125,124,124,124,125,124,0,1764980941.0103626
125,123,125,124,124,124,124,124,0,1764980941.010365
125,124,124,124,124,123,125,125,0,1764980941.0305626
126,124,124,123,124,123,125,125,0,1764980941.0305662
126,124,124,123,123,123,125,125,0,1764980941.0305684
126,124,123,123,122,123,126,124,0,1764980941.0305707
125,123,123,123,123,124,124,124,0,1764980941.0305731
125,123,123,123,123,124,123,123,0,1764980941.0305753
125,124,124,123,123,125,122,122,0,1764980941.0305777
124,124,124,124,123,125,121,122,0,1764980941.0305798
125,124,124,124,123,126,121,123,0,1764980941.0305817
125,124,124,124,123,125,122,124,0,1764980941.030584
125,124,124,124,123,124,123,126,0,1764980941.030586
125,124,124,124,123,124,124,127,0,1764980941.0305884
125,124,124,124,124,124,124,127,0,1764980941.0305905
125,123,124,124,124,124,124,126,0,1764980941.0305924
125,123,124,124,124,124,123,125,0,1764980941.0305946
125,123,123,124,124,125,122,124,0,1764980941.0305972
124,123,123,124,124,125,122,122,0,1764980941.060892
125,123,123,124,123,125,123,122,0,1764980941.0608962
125,124,123,124,123,124,124,122,0,1764980941.0608988
126,124,123,124,122,124,126,122,0,1764980941.060901
126,125,124,124,123,123,126,123,0,1764980941.060903
126,125,124,124,124,123,126,123,0,1764980941.0609055
126,125,125,123,124,123,125,124,0,1764980941.0609078
125,124,125,123,124,123,124,124,0,1764980941.06091
125,124,125,123,124,123,123,125,0,1764980941.0609121
125,124,124,124,124,123,123,125,0,1764980941.0609145
125,124,124,124,123,123,123,126,0,1764980941.0609167
125,123,123,124,123,123,124,126,0,1764980941.060919
125,123,123,124,123,123,124,125,0,1764980941.0609212
125,123,123,125,123,124,123,124,0,1764980941.0609233
125,123,123,124,123,124,123,124,0,1764980941.0609295
125,123,124,125,124,124,123,123,0,1764980941.0609326
124,123,124,124,124,125,123,123,0,1764980941.0811212
124,123,124,124,123,125,123,124,0,1764980941.081125
125,124,124,123,123,125,124,124,0,1764980941.0811276
125,124,124,123,123,124,124,124,0,1764980941.0811298
125,124,124,123,122,123,124,124,0,1764980941.0811322
125,124,124,123,122,124,124,124,0,1764980941.0811346
125,124,124,124,123,124,124,123,0,1764980941.081137
125,123,124,124,123,124,124,123,0,1764980941.081139
125,123,124,124,123,124,123,123,0,1764980941.0811412
125,124,124,124,124,124,124,123,0,1764980941.0811439
125,124,124,124,124,124,124,124,0,1764980941.0811458
126,125,125,124,124,124,125,125,0,1764980941.0811481
126,125,124,124,124,124,126,125,0,1764980941.0811503
126,125,124,124,124,125,127,126,0,1764980941.0811572
126,124,124,123,124,125,126,125,0,1764980941.0811594
125,124,123,124,123,125,126,124,0,1764980941.081162
125,123,123,123,124,125,125,123,0,1764980941.1315193
125,123,123,124,123,125,123,122,0,1764980941.1315234
125,123,124,124,123,124,123,123,0,1764980941.1315255
125,123,124,124,123,123,123,124,0,1764980941.131528
125,123,124,124,123,123,122,125,0,1764980941.13153
125,123,124,124,123,123,123,126,0,1764980941.1315324
125,123,124,124,123,123,123,126,0,1764980941.1315348
125,124,125,124,123,124,123,125,0,1764980941.131537
126,124,125,124,123,124,123,124,0,1764980941.131539
125,124,125,124,124,125,124,123,0,1764980941.1315413
125,124,124,123,123,124,123,124,0,1764980941.1315434
124,124,124,123,123,124,123,124,0,1764980941.1315453
125,124,124,123,123,124,124,125,0,1764980941.1315477
125,124,124,123,123,124,124,125,0,1764980941.1315496
125,124,124,123,123,123,123,124,0,1764980941.1315515
126,124,124,123,123,124,123,123,0,1764980941.131554
126,123,124,124,123,124,122,123,0,1764980941.1517663
126,123,124,124,123,124,122,122,0,1764980941.15177
125,123,124,124,123,124,123,123,0,1764980941.151781
125,123,124,124,123,125,124,123,0,1764980941.1517837
125,123,124,124,123,124,125,125,0,1764980941.151786
125,124,124,124,123,124,125,125,0,1764980941.1517882
124,124,124,124,124,124,125,125,0,1764980941.1517906
125,124,123,124,124,124,125,124,0,1764980941.151793
125,123,123,124,124,124,124,123,0,1764980941.1517951
125,124,123,124,123,124,123,123,0,1764980941.1517975
125,124,124,123,123,124,123,123,0,1764980941.1517994
125,124,124,123,122,123,123,124,0,1764980941.1518018
125,125,124,123,122,123,123,125,0,1764980941.1518042
126,125,124,123,122,123,125,125,0,1764980941.1518064
125,125,124,123,123,123,125,125,0,1764980941.1518085
125,125,124,123,123,124,125,125,0,1764980941.1518111
125,124,124,124,123,124,124,123,0,1764980941.1921842
124,123,124,124,123,125,124,123,0,1764980941.1921895
124,123,124,124,123,125,123,123,0,1764980941.192192
124,123,124,124,123,124,124,124,0,1764980941.1921942
124,123,124,125,122,123,125,123,0,1764980941.1921966
125,123,124,124,122,123,125,124,0,1764980941.1922033
126,123,124,124,123,123,126,124,0,1764980941.192206
126,123,123,124,123,123,125,124,0,1764980941.192208
126,123,124,124,124,123,124,124,0,1764980941.1922104
126,123,124,124,125,123,122,125,0,1764980941.1922128
126,124,124,124,125,124,121,125,0,1764980941.192215
126,124,124,124,125,124,121,126,0,1764980941.192217
126,125,125,124,125,124,122,126,0,1764980941.1922195
126,125,125,124,124,124,123,126,0,1764980941.1922214
126,125,124,124,123,124,125,125,0,1764980941.1922238
125,124,124,124,122,123,126,125,0,1764980941.192231
125,124,124,124,122,123,125,123,0,1764980941.2225764
124,123,124,124,121,123,125,123,0,1764980941.2225807
124,123,124,124,122,124,124,124,0,1764980941.2225833
124,123,124,123,123,125,123,124,0,1764980941.222586
125,124,124,124,123,125,123,124,0,1764980941.222588
125,124,124,124,123,125,125,125,0,1764980941.2225904
126,124,124,124,123,124,126,124,0,1764980941.222593
125,124,123,124,123,124,126,123,0,1764980941.2225957
125,124,123,124,124,124,125,123,0,1764980941.2225978
125,123,123,124,125,124,124,122,0,1764980941.2226002
125,123,123,123,125,124,122,123,0,1764980941.2226026
125,123,123,123,125,124,121,123,0,1764980941.2226048
125,124,123,123,125,124,122,123,0,1764980941.2226071
125,124,124,123,124,124,123,124,0,1764980941.2226143
125,124,124,123,123,124,124,124,0,1764980941.2226167
126,124,124,124,123,124,126,124,0,1764980941.222619
125,124,124,124,122,125,126,125,0,1764980941.2428372
124,124,124,124,122,125,126,125,0,1764980941.242842
124,123,124,124,122,125,125,124,0,1764980941.2428446
124,123,124,123,122,125,124,124,0,1764980941.242847
124,123,124,123,123,124,123,124,0,1764980941.2428496
125,123,124,123,123,124,123,124,0,1764980941.2428558
125,123,124,124,123,123,124,125,0,1764980941.242858
125,123,124,124,123,123,125,125,0,1764980941.2428603
125,123,123,124,123,123,125,125,0,1764980941.242863
125,123,124,124,124,124,125,125,0,1764980941.2428653
125,124,124,124,125,124,124,125,0,1764980941.2428677
125,124,124,124,126,124,123,124,0,1764980941.2428703
125,125,124,124,126,124,123,123,0,1764980941.2428725
125,125,124,124,126,124,123,123,0,1764980941.2428746
126,124,123,124,124,123,123,124,0,1764980941.242877
125,124,123,124,123,123,122,124,0,1764980941.2428794
125,123,124,124,122,124,122,124,0,1764980941.2832952
125,123,124,124,122,125,121,123,0,1764980941.2833004
125,123,124,124,122,125,120,123,0,1764980941.2833033
125,124,124,124,122,125,119,123,0,1764980941.2833056
126,124,125,124,123,125,120,123,0,1764980941.2833083
126,125,125,124,123,124,122,124,0,1764980941.2833107
126,125,125,124,123,124,123,125,0,1764980941.283313
126,125,124,124,123,123,125,125,0,1764980941.2833154
125,125,124,124,124,123,127,125,0,1764980941.2833183
125,124,124,124,123,123,127,125,0,1764980941.2833207
125,124,124,123,123,123,126,124,0,1764980941.2833228
125,123,124,123,124,123,126,123,0,1764980941.2833266
125,123,124,124,124,123,126,124,0,1764980941.2833347
125,123,124,123,124,124,125,124,0,1764980941.283337
126,123,124,124,124,124,124,125,0,1764980941.2833395
126,124,124,124,125,124,125,125,0,1764980941.2833426
126,125,124,124,124,125,124,125,0,1764980941.3034918
126,124,124,124,124,125,124,124,0,1764980941.3034956
125,124,124,124,124,125,124,124,0,1764980941.3034983
125,124,124,124,123,125,123,124,0,1764980941.3035007
125,123,124,124,123,124,123,124,0,1764980941.3035028
124,123,124,123,122,123,122,124,0,1764980941.303505
124,123,124,123,122,123,122,123,0,1764980941.3035076
125,123,124,123,122,123,123,124,0,1764980941.3035097
125,124,124,124,121,123,124,124,0,1764980941.3035126
125,124,124,124,121,123,125,124,0,1764980941.3135808
125,124,124,123,122,124,126,125,0,1764980941.3135839
125,124,124,124,122,124,125,126,0,1764980941.3135862
125,125,124,124,123,125,124,125,0,1764980941.3136005
125,125,125,123,124,125,124,125,0,1764980941.3136024
126,125,125,124,124,125,123,124,0,1764980941.313605
126,125,125,124,124,125,124,124,0,1764980941.3136075
126,125,124,124,123,125,125,123,0,1764980941.3539627
126,124,124,124,123,124,125,123,0,1764980941.3539684
126,124,123,124,123,124,126,123,0,1764980941.3539715
125,124,123,124,124,124,125,122,0,1764980941.3539743
125,123,123,124,124,124,123,122,0,1764980941.3539772
124,123,124,123,124,125,121,122,0,1764980941.35398
125,123,124,124,124,126,122,123,0,1764980941.353983
125,123,124,124,124,126,122,124,0,1764980941.3539855
126,124,124,124,123,125,124,125,0,1764980941.3539925
126,124,124,124,122,124,126,125,0,1764980941.3539953
126,124,124,124,122,123,127,126,0,1764980941.3539982
125,124,124,124,122,122,126,125,0,1764980941.3540008
125,123,123,123,122,122,124,124,0,1764980941.3540034
125,123,123,123,123,123,122,124,0,1764980941.3540075
124,123,123,123,124,123,121,123,0,1764980941.3540103
124,123,123,123,124,124,121,124,0,1764980941.3540132
124,123,123,123,124,124,123,125,0,1764980941.3742266
125,124,124,123,124,124,124,125,0,1764980941.374231
125,123,124,124,123,124,125,126,0,1764980941.3742335
126,123,124,124,123,124,125,126,0,1764980941.374236
126,123,124,124,123,123,123,125,0,1764980941.3742387
126,123,124,124,124,124,122,123,0,1764980941.374241
126,123,124,124,124,124,122,123,0,1764980941.3742497
125,124,124,124,123,123,122,122,0,1764980941.374252
125,124,123,124,123,123,123,121,0,1764980941.3742542
125,124,123,124,122,123,124,122,0,1764980941.3742566
125,124,123,124,122,123,125,122,0,1764980941.374259
125,124,123,124,122,123,125,122,0,1764980941.3742611
125,124,124,124,123,125,125,122,0,1764980941.3742635
125,124,124,125,123,125,125,123,0,1764980941.3742697
125,124,125,125,124,125,125,124,0,1764980941.374272
125,124,125,125,125,125,125,125,0,1764980941.3742747
126,125,126,125,125,125,126,126,0,1764980941.4145644
126,125,125,125,125,124,127,127,0,1764980941.4145691
126,125,125,124,125,123,128,127,0,1764980941.4145718
126,125,125,124,124,123,128,126,0,1764980941.4145744
126,125,124,124,123,123,127,124,0,1764980941.4145765
125,124,124,124,123,124,124,123,0,1764980941.414579
125,124,124,123,123,124,123,123,0,1764980941.4145813
125,123,123,123,122,125,121,123,0,1764980941.4145832
125,123,124,124,123,126,121,124,0,1764980941.4145856
125,124,124,124,124,125,122,126,0,1764980941.4145887
125,124,124,124,123,125,123,127,0,1764980941.4246786
125,124,124,124,124,125,123,127,0,1764980941.4246953
125,125,124,124,124,124,123,126,0,1764980941.4246979
125,124,124,124,124,124,122,124,0,1764980941.4247003
125,123,124,123,124,125,122,123,0,1764980941.4247024
125,123,124,123,124,125,121,122,0,1764980941.424705
125,123,123,124,124,124,122,122,0,1764980941.4448943
125,123,123,124,123,124,123,123,0,1764980941.4448988
124,123,123,124,123,123,124,124,0,1764980941.4449015
124,123,123,124,123,123,126,124,0,1764980941.4449036
124,124,124,124,123,124,125,125,0,1764980941.444906
125,124,124,123,123,125,124,124,0,1764980941.4449084
125,124,124,124,124,125,122,124,0,1764980941.4449108
126,124,124,124,124,126,121,124,0,1764980941.4449136
126,124,124,123,124,125,120,124,0,1764980941.444916
126,124,124,123,124,123,121,124,0,1764980941.444918
126,124,124,123,124,122,123,124,0,1764980941.4449205
126,125,124,123,123,121,125,125,0,1764980941.444923
125,125,124,123,122,121,127,125,0,1764980941.4449298
125,125,124,123,123,122,128,124,0,1764980941.444932
125,125,124,124,123,124,127,124,0,1764980941.4449344
125,125,124,124,123,125,126,124,0,1764980941.4449372
125,124,124,125,123,126,124,124,0,1764980941.4852412
125,124,124,124,123,126,123,124,0,1764980941.485246
126,124,124,124,122,125,123,124,0,1764980941.4852486
125,124,123,124,123,124,123,124,0,1764980941.4852507
125,124,123,123,122,123,123,124,0,1764980941.4852533
125,124,123,123,123,123,123,123,0,1764980941.485256
125,123,123,123,123,123,123,122,0,1764980941.4852583
125,123,123,124,124,124,122,122,0,1764980941.4852605
125,123,124,123,124,124,122,122,0,1764980941.4852629
126,124,124,123,124,124,123,123,0,1764980941.4852653
126,124,124,124,125,124,123,125,0,1764980941.4852672
126,124,124,124,124,124,125,126,0,1764980941.4852695
126,124,125,124,123,123,127,126,0,1764980941.4852717
126,124,125,124,123,124,127,126,0,1764980941.4852793
125,124,124,124,122,124,126,126,0,1764980941.4852815
125,124,124,124,123,124,125,124,0,1764980941.4852843
125,124,124,124,123,125,124,124,0,1764980941.5054095
125,124,124,124,124,124,123,124,0,1764980941.505412
125,125,124,124,124,124,124,124,0,1764980941.5054145
126,125,125,124,124,123,125,124,0,1764980941.5054166
126,125,124,124,124,123,125,124,0,1764980941.505419
126,125,124,124,125,124,125,125,0,1764980941.5054214
126,124,124,125,125,124,123,124,0,1764980941.5054235
126,124,124,125,125,125,122,125,0,1764980941.505426
126,123,124,124,125,125,121,125,0,1764980941.5054283
125,124,124,124,124,125,120,125,0,1764980941.5054305
125,123,124,123,124,125,121,125,0,1764980941.5054326
125,123,124,123,123,124,123,126,0,1764980941.505435
125,123,124,123,122,123,124,125,0,1764980941.5054371
125,123,124,123,123,124,125,124,0,1764980941.5054393
125,123,124,123,123,123,125,123,0,1764980941.5054414
125,123,124,124,123,124,124,123,0,1764980941.5054438
125,124,124,124,123,125,124,122,0,1764980941.5356638
125,123,124,124,124,125,124,122,0,1764980941.5356681
126,124,124,124,123,125,124,123,0,1764980941.5356708
126,124,124,124,124,124,125,123,0,1764980941.5356734
126,124,124,124,123,124,125,124,0,1764980941.5356758
126,124,124,124,123,123,125,124,0,1764980941.5356781
125,124,123,124,123,123,125,124,0,1764980941.5356846
124,124,123,124,123,124,125,124,0,1764980941.5356872
124,124,124,124,123,125,124,124,0,1764980941.5356898
124,123,124,124,123,125,124,124,0,1764980941.535692
124,123,124,124,123,125,123,124,0,1764980941.5356944
125,123,124,125,124,125,122,124,0,1764980941.5356967
125,124,124,125,124,124,123,124,0,1764980941.535699
125,124,124,124,124,123,123,124,0,1764980941.5357013
125,124,124,124,124,123,124,125,0,1764980941.5357087
125,124,124,123,124,124,124,125,0,1764980941.5357113
125,123,124,123,123,124,124,124,0,1764980941.5760815
125,123,124,123,123,125,123,124,0,1764980941.5760858
124,123,124,123,122,125,122,124,0,1764980941.576088
124,123,124,123,122,125,123,123,0,1764980941.5760903
124,123,123,123,122,124,124,124,0,1764980941.5760927
124,123,123,124,122,123,125,124,0,1764980941.5760953
125,124,123,124,123,123,127,125,0,1764980941.5760975
126,124,124,125,124,122,127,124,0,1764980941.5760999
126,124,124,125,125,123,126,124,0,1764980941.5761023
127,125,124,125,125,123,125,124,0,1764980941.5761044
126,125,124,125,125,124,124,124,0,1764980941.5761068
126,124,124,124,124,124,123,124,0,1764980941.5761092
125,124,123,124,123,124,124,124,0,1764980941.576115
125,124,124,124,122,124,125,125,0,1764980941.576117
125,123,123,123,122,124,126,125,0,1764980941.5761192
125,123,124,123,122,123,126,125,0,1764980941.576122
125,123,124,123,123,122,125,124,0,1764980941.596276
125,124,124,123,123,123,124,124,0,1764980941.5962799
125,124,124,123,124,123,123,123,0,1764980941.5962827
125,124,124,123,123,123,122,122,0,1764980941.5962853
125,124,124,124,123,124,123,123,0,1764980941.5962877
126,124,124,125,123,124,123,124,0,1764980941.59629
126,124,124,125,123,124,124,125,0,1764980941.5962923
126,124,124,125,123,124,124,125,0,1764980941.5962946
126,124,124,125,123,124,124,124,0,1764980941.5962973
125,124,124,124,123,125,124,123,0,1764980941.5962992
125,124,124,124,124,125,123,122,0,1764980941.5963016
125,124,124,124,124,125,122,122,0,1764980941.596304
125,124,124,124,125,125,122,122,0,1764980941.5963104
125,124,123,124,124,125,122,124,0,1764980941.5963125
125,124,124,124,124,124,123,125,0,1764980941.5963151
125,124,124,124,124,124,123,125,0,1764980941.5963178
125,124,124,124,123,124,124,125,0,1764980941.6265311
126,124,124,124,123,123,123,125,0,1764980941.6265345
125,124,124,124,123,123,123,124,0,1764980941.6265366
125,124,123,123,122,123,122,123,0,1764980941.6265385
125,124,123,124,123,123,123,124,0,1764980941.6265402
125,124,123,124,123,123,124,124,0,1764980941.626542
125,124,123,123,122,123,125,125,0,1764980941.6265438
125,124,123,123,123,123,125,125,0,1764980941.6265457
125,123,123,123,123,123,125,124,0,1764980941.6265476
125,124,124,123,124,124,123,124,0,1764980941.6265492
125,124,124,123,125,124,122,123,0,1764980941.6265512
124,124,124,123,125,125,122,123,0,1764980941.6265528
125,124,124,123,124,125,123,124,0,1764980941.6265543
125,124,124,123,124,124,124,125,0,1764980941.6265562
125,124,124,123,123,124,125,125,0,1764980941.626558
125,123,124,124,122,124,126,125,0,1764980941.6265602
125,123,124,124,122,124,126,125,0,1764980941.6669576
125,123,124,124,122,125,125,124,0,1764980941.6669707
124,123,124,124,122,125,123,123,0,1764980941.6669734
124,124,124,124,123,126,122,123,0,1764980941.666976
125,124,124,124,124,126,122,123,0,1764980941.6669784
126,124,125,124,125,125,123,124,0,1764980941.6669805
126,124,124,124,125,124,125,124,0,1764980941.666983
127,125,125,124,125,123,127,125,0,1764980941.6669855
126,124,124,123,124,122,127,125,0,1764980941.6669917
126,124,124,123,124,122,127,125,0,1764980941.666994
125,123,124,123,123,122,125,124,0,1764980941.6669965
125,123,124,123,122,123,124,124,0,1764980941.6669989
124,123,124,123,122,124,123,124,0,1764980941.667001
125,123,124,124,122,124,123,124,0,1764980941.6670034
125,123,123,124,122,125,123,124,0,1764980941.6670058
125,124,123,124,122,125,124,124,0,1764980941.6670082
125,124,122,124,122,125,124,124,0,1764980941.6872241
125,124,123,124,123,124,124,123,0,1764980941.687229
125,124,123,124,123,124,123,122,0,1764980941.6872315
124,124,124,124,124,123,122,122,0,1764980941.6872337
124,124,124,124,125,123,121,122,0,1764980941.6872363
125,124,125,124,125,123,122,123,0,1764980941.6872387
126,125,125,124,125,124,122,124,0,1764980941.6872659
126,125,125,124,124,123,124,125,0,1764980941.687268
127,125,125,124,124,123,125,126,0,1764980941.6872704
127,124,124,123,123,124,124,126,0,1764980941.6872728
126,124,124,123,122,124,124,126,0,1764980941.6872747
125,124,123,123,122,124,123,125,0,1764980941.687277
125,124,124,124,122,125,123,124,0,1764980941.6872795
125,123,124,124,123,125,123,123,0,1764980941.6872814
125,124,124,124,123,125,124,124,0,1764980941.6872838
126,124,124,124,123,124,123,124,0,1764980941.6872873
125,124,124,124,124,123,123,124,0,1764980941.737865
125,124,124,124,124,122,124,125,0,1764980941.7378707
124,124,124,123,124,122,123,125,0,1764980941.7378743
124,124,124,123,124,122,123,124,0,1764980941.737969
123,123,124,124,124,122,123,123,0,1764980941.737972
124,124,124,124,124,123,123,123,0,1764980941.737987
124,124,124,124,124,124,123,123,0,1764980941.7379897
125,125,124,125,124,125,124,124,0,1764980941.738172
126,125,124,125,123,126,125,125,0,1764980941.7381763
126,125,124,125,123,126,127,125,0,1764980941.7381947
126,124,124,124,123,126,127,125,0,1764980941.7381985
126,123,124,124,124,125,126,124,0,1764980941.7382014
125,123,124,123,124,125,124,123,0,1764980941.7382147
125,123,124,123,125,125,123,122,0,1764980941.7382174
125,124,124,123,126,124,122,122,0,1764980941.7382193
126,124,124,123,125,123,122,123,0,1764980941.7382216
127,124,124,123,124,123,123,124,0,1764980941.7584789
126,124,124,123,123,122,124,124,0,1764980941.758496
126,124,124,124,122,122,125,125,0,1764980941.758504
125,123,124,124,122,122,125,124,0,1764980941.758519
125,124,124,124,122,123,125,123,0,1764980941.7585378
124,124,124,124,122,123,124,123,0,1764980941.7585454
124,124,124,124,122,124,122,123,0,1764980941.7585523
125,124,124,124,122,124,121,124,0,1764980941.758559
125,124,124,124,122,124,122,125,0,1764980941.7585657
125,124,124,124,122,123,123,126,0,1764980941.758572
125,124,124,123,123,124,124,127,0,1764980941.7585785
126,124,124,123,123,123,124,127,0,1764980941.7585845
125,124,124,123,124,125,124,126,0,1764980941.758591
125,124,124,123,124,125,122,124,0,1764980941.7585971
125,124,124,124,124,125,121,124,0,1764980941.7586036
125,124,124,124,124,125,122,123,0,1764980941.7586184
124,124,124,124,123,125,123,124,0,1764980941.7990518
125,124,124,124,122,124,125,125,0,1764980941.7990606
125,124,124,124,122,124,127,125,0,1764980941.7990658
125,124,124,124,122,124,128,126,0,1764980941.7990708
125,124,124,123,123,124,128,126,0,1764980941.7990758
125,124,124,123,123,124,127,124,0,1764980941.7990813
124,124,124,124,124,125,125,123,0,1764980941.799086
124,124,124,124,124,125,124,123,0,1764980941.7990909
125,124,124,124,124,125,124,124,0,1764980941.7990959
126,124,124,125,124,124,124,124,0,1764980941.7991004
127,124,124,126,124,124,125,125,0,1764980941.799105
126,124,124,125,124,123,125,124,0,1764980941.7991097
126,124,124,125,123,123,125,123,0,1764980941.7991142
126,123,124,124,123,124,124,123,0,1764980941.7991188
125,123,124,124,124,124,123,123,0,1764980941.7991235
125,123,124,123,124,125,122,122,0,1764980941.799131
125,123,124,123,123,124,122,122,0,1764980941.8294861
125,123,124,123,123,124,122,124,0,1764980941.8294907
125,124,124,124,123,124,122,125,0,1764980941.8294935
125,124,124,124,122,124,122,125,0,1764980941.8294961
125,124,124,124,123,124,123,125,0,1764980941.8294983
125,124,125,124,123,125,122,125,0,1764980941.829501
126,124,125,124,123,125,122,124,0,1764980941.8295033
125,123,125,124,123,125,123,123,0,1764980941.8295054
125,123,124,124,124,125,123,123,0,1764980941.8295078
125,123,124,124,123,124,123,123,0,1764980941.8295102
126,124,124,124,122,123,124,123,0,1764980941.8295124
125,124,123,124,123,124,124,123,0,1764980941.8295214
125,124,123,123,123,123,123,123,0,1764980941.8295238
125,125,124,123,124,124,123,123,0,1764980941.829526
125,125,124,123,125,124,123,124,0,1764980941.8295283
124,125,124,123,125,124,123,124,0,1764980941.829531
125,124,124,123,124,124,123,124,0,1764980941.869974
125,124,124,124,124,124,125,125,0,1764980941.8699794
125,124,124,124,124,124,126,125,0,1764980941.869982
125,123,124,124,123,124,127,125,0,1764980941.8699841
125,123,124,124,123,124,127,125,0,1764980941.8699868
125,123,124,124,123,124,126,124,0,1764980941.8699892
125,124,124,124,122,124,124,123,0,1764980941.8699915
125,124,124,124,122,124,122,122,0,1764980941.8699937
125,124,124,124,122,123,121,122,0,1764980941.870001
125,124,124,124,122,123,121,124,0,1764980941.8700035
126,124,124,124,123,124,123,125,0,1764980941.8700058
126,124,124,125,123,124,124,126,0,1764980941.870008
126,123,124,125,124,124,126,125,0,1764980941.870011
127,123,124,124,124,125,126,125,0,1764980941.8700132
126,123,124,124,124,125,125,123,0,1764980941.8700154
125,123,124,123,124,124,124,123,0,1764980941.870018
125,124,124,123,124,124,122,123,0,1764980941.890206
125,124,124,123,123,123,122,123,0,1764980941.8902218
125,124,124,124,123,123,122,123,0,1764980941.8902245
125,124,123,124,123,123,124,124,0,1764980941.8902266
125,124,123,124,123,123,125,125,0,1764980941.890236
125,124,124,124,123,123,125,125,0,1764980941.8902383
125,124,124,124,123,124,124,125,0,1764980941.8902404
125,124,124,124,123,124,123,125,0,1764980941.8902428
126,124,125,124,124,125,123,125,0,1764980941.890245
126,124,125,124,124,126,123,124,0,1764980941.890247
126,124,125,124,124,126,124,124,0,1764980941.8902493
126,125,125,124,124,126,125,124,0,1764980941.8902516
126,125,125,124,124,125,125,124,0,1764980941.8902535
126,125,124,124,124,124,125,123,0,1764980941.8902557
125,124,124,124,124,124,125,122,0,1764980941.8902578
125,124,124,124,124,124,124,122,0,1764980941.890261
125,125,124,123,125,124,124,121,0,1764980941.9104378
125,125,124,123,125,125,124,121,0,1764980941.9104426
125,125,124,123,124,125,125,123,0,1764980941.9104447
125,125,124,123,123,125,125,124,0,1764980941.910447
125,124,124,123,123,124,125,125,0,1764980941.9104488
124,123,124,123,122,124,125,125,0,1764980941.9104507
125,123,124,124,122,123,124,125,0,1764980941.9104524
125,122,124,124,122,123,122,125,0,1764980941.9104543
125,122,124,124,123,124,121,124,0,1764980941.9104562
125,122,124,124,124,124,120,124,0,1764980941.9104578
125,123,124,124,124,124,121,125,0,1764980941.9104598
125,124,124,124,124,124,123,125,0,1764980941.9104614
126,124,124,123,124,124,125,125,0,1764980941.910463
126,125,124,124,124,123,127,125,0,1764980941.9104648
126,124,124,124,124,124,127,125,0,1764980941.9104662
125,124,124,124,124,124,126,123,0,1764980941.910469
125,124,124,124,124,124,123,123,0,1764980941.9609044
125,123,124,124,124,124,121,123,0,1764980941.9609094
126,123,124,124,124,124,121,122,0,1764980941.960912
126,124,124,123,123,123,122,123,0,1764980941.9609144
126,124,124,123,122,124,123,124,0,1764980941.9609168
126,124,123,123,122,124,125,124,0,1764980941.9609191
126,125,124,124,122,124,126,124,0,1764980941.960921
124,124,124,124,123,124,125,124,0,1764980941.9609234
124,124,124,124,124,125,124,124,0,1764980941.9609256
124,124,124,124,124,124,124,124,0,1764980941.9609277
125,123,124,124,124,124,123,125,0,1764980941.9609349
125,123,124,124,123,124,123,125,0,1764980941.960937
125,124,124,124,123,123,124,125,0,1764980941.9609394
125,124,124,124,123,123,126,126,0,1764980941.9609418
125,124,123,125,123,122,126,125,0,1764980941.9609442
125,123,124,124,123,122,126,124,0,1764980941.9609463
125,123,124,124,124,123,125,123,0,1764980941.9812355
124,123,124,124,123,123,124,122,0,1764980941.98124
124,123,124,123,123,124,122,121,0,1764980941.9812427
124,124,124,123,123,125,122,122,0,1764980941.981245
125,124,124,123,123,124,123,123,0,1764980941.9812474
125,125,124,124,123,124,123,125,0,1764980941.98125
126,125,124,124,123,123,123,125,0,1764980941.9812524
125,125,124,124,123,123,124,125,0,1764980941.9812546
126,124,124,124,123,123,124,124,0,1764980941.981257
125,124,124,124,123,124,122,123,0,1764980941.9812593
125,123,123,123,124,124,121,123,0,1764980941.9812613
126,123,124,124,124,124,121,123,0,1764980941.9812636
126,124,124,124,124,125,122,124,0,1764980941.9812703
126,124,124,124,124,125,124,125,0,1764980941.9812725
127,124,124,124,124,125,125,125,0,1764980941.9812748
127,124,124,124,123,124,126,124,0,1764980941.9812772
126,123,124,123,123,124,125,123,0,1764980942.0316849
126,123,124,123,123,124,123,122,0,1764980942.0316894
126,122,124,123,123,124,122,122,0,1764980942.031692
125,122,124,124,123,124,121,122,0,1764980942.0316944
125,122,124,124,123,124,122,124,0,1764980942.031697
124,123,124,124,123,124,123,124,0,1764980942.0317
124,123,124,124,123,124,124,125,0,1764980942.0317023
124,124,124,124,123,124,125,125,0,1764980942.0317047
124,124,124,124,123,124,125,125,0,1764980942.031707
125,124,125,124,123,124,124,124,0,1764980942.0317094
125,124,125,124,124,124,124,124,0,1764980942.0317118
125,125,125,124,124,124,123,123,0,1764980942.0317137
124,124,125,123,123,123,122,124,0,1764980942.031716
125,124,124,123,123,123,123,124,0,1764980942.0317183
125,124,124,123,123,123,124,125,0,1764980942.0317204
125,124,123,124,122,123,125,125,0,1764980942.0317278
125,124,123,123,123,124,125,125,0,1764980942.0519269
125,124,123,123,123,125,124,125,0,1764980942.0519292
126,123,123,123,124,126,123,124,0,1764980942.0519316
126,123,124,123,124,126,122,124,0,1764980942.0519342
127,123,124,123,124,125,122,124,0,1764980942.0519361
127,123,124,123,123,124,122,125,0,1764980942.0519385
126,123,124,124,123,124,123,124,0,1764980942.051941
126,124,124,124,122,123,124,125,0,1764980942.051943
125,123,123,123,123,123,124,124,0,1764980942.0519452
124,124,123,123,123,123,125,123,0,1764980942.0519474
124,124,123,123,124,124,125,123,0,1764980942.0519495
125,124,124,123,124,124,123,123,0,1764980942.051952
125,123,124,123,124,124,123,122,0,1764980942.0519543
126,123,124,123,124,124,123,123,0,1764980942.0519598
126,124,124,124,123,124,123,124,0,1764980942.0519621
126,124,124,124,123,123,124,125,0,1764980942.0519645
126,124,124,124,123,124,124,125,0,1764980942.072247
125,124,124,124,122,124,124,125,0,1764980942.0722518
124,124,124,124,122,125,123,124,0,1764980942.0722547
123,123,124,123,122,125,123,123,0,1764980942.0722573
123,123,124,123,122,125,123,123,0,1764980942.0722597
124,123,124,123,122,124,124,124,0,1764980942.072262
125,124,124,123,123,124,125,125,0,1764980942.0722644
126,124,124,123,122,122,126,125,0,1764980942.0722666
126,124,124,123,122,122,126,125,0,1764980942.0722687
126,124,124,124,123,122,126,125,0,1764980942.0722713
126,124,124,124,124,123,125,124,0,1764980942.0722735
125,124,124,124,124,123,124,123,0,1764980942.0722804
125,124,124,124,125,124,123,123,0,1764980942.0722826
125,125,125,125,126,125,123,124,0,1764980942.07229
125,125,125,125,126,124,124,126,0,1764980942.0722926
126,125,125,125,125,124,125,127,0,1764980942.072295
126,125,124,125,124,124,127,127,0,1764980942.1125696
125,125,124,124,124,125,127,127,0,1764980942.112574
125,124,124,124,124,125,126,126,0,1764980942.1125767
125,124,123,123,123,124,125,125,0,1764980942.1226854
125,124,124,123,124,124,123,123,0,1764980942.1226897
125,124,124,123,124,125,122,123,0,1764980942.1226923
126,125,124,123,124,124,122,123,0,1764980942.1226947
126,125,124,124,124,124,123,124,0,1764980942.1226969
126,124,124,124,123,125,124,124,0,1764980942.1226995
126,124,124,123,123,124,125,124,0,1764980942.1227129
125,124,123,123,123,124,125,124,0,1764980942.1227155
125,124,123,123,124,124,125,124,0,1764980942.1227176
125,124,124,124,124,124,123,123,0,1764980942.12272
125,123,123,124,124,124,122,123,0,1764980942.1227224
125,123,123,124,123,124,122,123,0,1764980942.1227245
125,124,123,124,123,123,123,124,0,1764980942.1227272
125,124,124,124,122,123,124,124,0,1764980942.1429255
125,124,124,124,122,123,124,125,0,1764980942.14293
124,124,124,124,122,124,124,125,0,1764980942.1429324
123,124,124,123,122,125,124,124,0,1764980942.1429346
123,123,124,123,123,125,123,123,0,1764980942.1429372
124,123,124,123,123,125,123,123,0,1764980942.1429393
124,123,124,123,123,125,123,123,0,1764980942.1429417
125,123,124,123,123,125,123,124,0,1764980942.142944
125,124,124,124,123,124,124,125,0,1764980942.1429462
126,124,124,124,123,124,124,125,0,1764980942.1429484
126,124,124,124,122,124,124,124,0,1764980942.1429508
125,124,124,124,123,124,124,124,0,1764980942.1429527
125,124,124,124,123,124,123,123,0,1764980942.1429548
125,124,124,124,124,124,122,122,0,1764980942.14296
125,124,124,124,124,124,122,122,0,1764980942.1429625
125,124,124,124,123,123,122,123,0,1764980942.142965
125,124,124,124,123,123,123,124,0,1764980942.1833227
125,124,124,123,122,122,124,125,0,1764980942.1833305
125,124,124,123,123,122,125,126,0,1764980942.1833334
125,124,124,123,123,123,125,126,0,1764980942.183336
125,123,124,123,123,125,125,125,0,1764980942.1833382
125,123,124,123,124,126,124,124,0,1764980942.1833408
124,124,124,124,124,127,124,123,0,1764980942.1833432
125,124,125,124,124,127,124,123,0,1764980942.1833453
125,124,124,124,124,126,125,124,0,1764980942.1833475
125,124,124,125,124,126,126,125,0,1764980942.1833498
125,124,124,125,124,125,126,124,0,1764980942.183352
125,124,124,125,124,124,126,124,0,1764980942.1833544
125,123,123,124,124,123,125,124,0,1764980942.1833568
125,122,124,124,124,123,123,123,0,1764980942.183359
125,123,124,124,124,123,122,123,0,1764980942.1833613
126,124,125,124,124,123,122,123,0,1764980942.183364
126,124,125,124,124,123,122,124,0,1764980942.2035317
126,125,125,124,124,123,124,124,0,1764980942.2035437
126,125,125,124,123,124,126,125,0,1764980942.203546
125,125,124,124,123,124,126,125,0,1764980942.2035484
125,124,124,124,124,124,126,124,0,1764980942.2035506
124,124,124,124,124,125,125,123,0,1764980942.2035527
124,123,124,123,124,125,123,123,0,1764980942.203555
125,123,123,123,123,125,122,123,0,1764980942.2035575
125,123,123,124,124,125,122,123,0,1764980942.2035594
125,123,123,123,123,125,124,124,0,1764980942.2035618
125,123,123,123,123,124,125,125,0,1764980942.2035637
125,124,123,123,123,124,126,125,0,1764980942.203566
125,124,124,123,123,124,126,125,0,1764980942.2035685
125,124,124,123,123,124,125,124,0,1764980942.2035704
125,124,125,123,124,125,125,124,0,1764980942.2035728
125,125,125,123,124,125,124,124,0,1764980942.2035754
125,124,125,124,124,125,124,125,0,1764980942.2237778
125,125,124,124,124,124,124,125,0,1764980942.223781
125,124,124,124,124,123,124,125,0,1764980942.2237835
125,124,124,124,123,123,124,124,0,1764980942.2237856
125,124,123,124,123,123,123,123,0,1764980942.223788
125,124,123,124,124,124,122,122,0,1764980942.2237904
126,123,124,124,123,125,121,121,0,1764980942.2237923
125,123,124,124,123,125,121,121,0,1764980942.2237947
125,124,124,124,123,125,122,123,0,1764980942.2237968
126,124,124,124,123,125,123,124,0,1764980942.2237988
126,125,124,124,122,124,124,125,0,1764980942.2238016
126,125,124,124,122,124,125,126,0,1764980942.2238076
126,125,124,124,123,123,126,126,0,1764980942.2238097
126,124,124,124,123,123,125,125,0,1764980942.2339237
125,123,124,123,124,123,123,124,0,1764980942.2339268
125,123,124,123,124,123,123,124,0,1764980942.2339292
125,123,124,123,124,123,123,124,0,1764980942.2742665
125,123,124,123,123,123,122,124,0,1764980942.2742712
124,123,124,123,122,123,122,124,0,1764980942.2742739
124,124,124,124,122,123,123,125,0,1764980942.2742765
125,124,124,124,122,124,124,125,0,1764980942.274284
125,124,124,124,123,125,125,125,0,1764980942.274286
125,124,124,125,123,125,125,124,0,1764980942.2742884
126,124,124,125,125,126,125,124,0,1764980942.2742908
126,124,124,124,125,125,123,123,0,1764980942.274293
126,124,124,123,124,124,123,123,0,1764980942.2742953
125,124,123,123,124,123,124,123,0,1764980942.2742972
126,124,123,122,123,122,125,124,0,1764980942.2742996
125,124,124,122,123,122,125,125,0,1764980942.274302
125,124,124,123,123,122,125,126,0,1764980942.274304
125,124,124,124,123,123,125,126,0,1764980942.2743063
124,124,124,124,123,124,123,126,0,1764980942.2743087
125,124,124,124,124,124,123,125,0,1764980942.2944365
126,124,124,124,124,125,123,123,0,1764980942.2944398
126,125,125,125,124,125,125,123,0,1764980942.294442
127,125,125,125,123,125,126,124,0,1764980942.2944443
127,125,125,125,123,125,126,124,0,1764980942.2944467
127,125,125,125,123,125,127,125,0,1764980942.2944486
126,124,124,124,122,125,126,124,0,1764980942.2944508
125,124,124,124,122,125,125,123,0,1764980942.294453
125,124,123,123,123,124,124,122,0,1764980942.2944553
125,124,123,123,124,124,123,122,0,1764980942.2944577
125,124,124,123,124,123,123,123,0,1764980942.2944596
126,124,124,123,124,123,123,124,0,1764980942.2944617
126,124,124,124,125,123,124,125,0,1764980942.294464
126,124,124,124,125,124,126,125,0,1764980942.2944663
126,124,124,124,125,124,126,125,0,1764980942.2944686
125,123,125,124,125,124,125,124,0,1764980942.2944753
125,123,125,124,124,125,123,124,0,1764980942.3448663
125,123,124,124,124,125,122,124,0,1764980942.3448718
126,123,124,123,124,124,122,124,0,1764980942.3448741
126,124,124,123,123,124,123,124,0,1764980942.344877
126,124,123,123,123,124,125,124,0,1764980942.3448794
126,125,123,123,123,124,126,125,0,1764980942.344882
125,125,123,124,123,124,126,125,0,1764980942.3448842
124,124,124,124,123,124,125,124,0,1764980942.3448865
123,124,124,124,123,124,124,124,0,1764980942.344889
123,124,124,124,124,125,122,124,0,1764980942.344895
124,123,124,124,124,124,121,124,0,1764980942.344897
124,123,124,124,123,123,121,124,0,1764980942.3448997
125,124,124,124,123,123,121,125,0,1764980942.3449018
125,124,124,123,122,123,123,125,0,1764980942.344904
125,124,124,123,122,123,124,124,0,1764980942.3449063
125,124,124,123,122,124,125,124,0,1764980942.3449087
125,124,124,123,123,125,125,123,0,1764980942.3650835
125,124,124,123,124,126,125,123,0,1764980942.3650897
125,124,124,123,124,125,124,123,0,1764980942.365095
125,124,124,123,124,125,124,123,0,1764980942.3651009
125,124,124,124,124,124,124,124,0,1764980942.3651054
125,124,124,123,124,124,124,124,0,1764980942.3651097
125,124,123,123,123,124,125,124,0,1764980942.3651183
125,123,124,124,123,124,125,124,0,1764980942.3651226
125,123,124,124,123,124,123,124,0,1764980942.3651266
125,123,124,124,123,124,122,123,0,1764980942.3651319
125,123,124,124,122,124,122,123,0,1764980942.3651364
125,124,124,124,123,124,121,123,0,1764980942.3651435
126,124,125,124,123,124,122,124,0,1764980942.3651478
126,124,125,124,123,124,124,125,0,1764980942.365152
126,124,124,124,123,124,124,126,0,1764980942.3651564
126,124,124,124,124,124,125,126,0,1764980942.3651607
125,124,124,124,124,123,125,125,0,1764980942.4054255
125,123,123,123,123,123,124,123,0,1764980942.4054308
125,124,123,124,123,124,124,123,0,1764980942.4054337
125,124,124,123,124,124,124,123,0,1764980942.4054363
125,124,124,124,124,125,125,123,0,1764980942.4054384
126,125,125,124,125,125,126,124,0,1764980942.4054408
126,125,125,124,125,125,127,126,0,1764980942.4054434
126,125,125,125,125,126,127,126,0,1764980942.4054453
126,125,125,125,125,125,126,126,0,1764980942.4054515
126,125,125,125,124,124,124,126,0,1764980942.405454
125,125,124,125,124,123,123,126,0,1764980942.405456
125,124,124,124,124,124,122,125,0,1764980942.4054585
125,124,124,124,124,124,122,124,0,1764980942.4054606
125,124,124,124,123,124,123,124,0,1764980942.4054627
125,124,124,123,123,124,125,124,0,1764980942.4054651
125,123,123,123,122,124,126,123,0,1764980942.4054725
125,123,123,123,122,123,127,124,0,1764980942.4357748
125,123,124,123,123,124,125,124,0,1764980942.4357786
125,123,123,124,123,124,123,123,0,1764980942.435781
124,123,124,124,123,124,122,122,0,1764980942.4357831
125,123,124,124,124,124,121,122,0,1764980942.4357855
125,124,124,124,123,123,121,121,0,1764980942.4357877
125,124,124,124,122,122,123,122,0,1764980942.43579
125,125,124,124,122,123,124,123,0,1764980942.4357924
125,125,123,124,122,123,124,124,0,1764980942.4357946
125,125,123,124,122,124,123,124,0,1764980942.435797
125,124,123,124,123,125,122,124,0,1764980942.4357991
125,124,123,124,124,126,121,124,0,1764980942.435801
125,124,123,124,124,125,121,124,0,1764980942.4358032
125,125,124,124,124,125,123,125,0,1764980942.4358056
125,125,124,124,125,124,124,126,0,1764980942.435811
126,125,125,124,124,123,125,126,0,1764980942.4358141
126,125,125,124,124,123,126,126,0,1764980942.4560301
126,124,125,124,124,124,126,125,0,1764980942.4560335
125,124,124,123,123,124,124,124,0,1764980942.4560359
124,123,124,123,123,124,124,122,0,1764980942.4560382
124,123,124,123,123,125,123,123,0,1764980942.4560401
124,123,124,123,122,125,123,124,0,1764980942.4560428
125,123,124,123,122,124,123,124,0,1764980942.4560452
126,123,124,124,123,124,124,125,0,1764980942.456047
126,124,124,124,123,124,125,125,0,1764980942.4560494
126,124,124,124,124,125,125,125,0,1764980942.4560578
126,124,124,125,125,125,125,123,0,1764980942.4560602
126,124,124,125,126,125,125,123,0,1764980942.4560626
126,124,124,124,126,126,124,123,0,1764980942.4560647
125,124,124,124,125,125,123,123,0,1764980942.456067
125,124,124,123,124,124,123,124,0,1764980942.4560692
125,124,124,123,124,124,123,124,0,1764980942.4560716
125,124,124,123,124,123,123,124,0,1764980942.4964256
125,124,124,123,123,123,123,123,0,1764980942.4964306
125,123,123,124,123,122,122,122,0,1764980942.4964335
125,124,123,125,124,123,122,122,0,1764980942.4964359
125,124,124,124,124,124,122,122,0,1764980942.4964385
126,124,124,125,124,124,123,123,0,1764980942.496441
126,125,124,125,124,124,124,124,0,1764980942.496446
127,125,125,125,124,124,125,126,0,1764980942.4964485
126,124,125,124,123,124,125,126,0,1764980942.496451
126,124,125,124,123,124,125,127,0,1764980942.496453
125,123,125,124,122,124,124,126,0,1764980942.4964554
125,123,124,123,123,124,124,125,0,1764980942.4964628
124,122,124,123,123,124,124,124,0,1764980942.4964652
124,123,124,123,123,124,124,124,0,1764980942.4964674
125,123,124,123,123,124,124,124,0,1764980942.4964697
125,123,123,123,123,123,125,125,0,1764980942.4964721
125,124,123,123,123,124,125,126,0,1764980942.5267198
125,124,123,123,123,124,125,126,0,1764980942.5267236
125,124,123,123,123,124,124,125,0,1764980942.5267262
125,124,123,123,123,125,123,124,0,1764980942.5267284
125,123,123,124,123,125,122,123,0,1764980942.5267305
125,123,123,123,123,124,122,123,0,1764980942.5267327
125,123,124,123,123,123,123,123,0,1764980942.526735
125,123,123,123,122,123,124,123,0,1764980942.5267375
125,123,123,123,123,122,125,123,0,1764980942.5267396
125,124,123,123,122,122,126,124,0,1764980942.526742
125,124,124,124,122,123,125,123,0,1764980942.5267441
126,125,124,124,124,124,124,123,0,1764980942.526746
126,125,124,124,124,125,123,123,0,1764980942.5267482
125,125,124,124,124,126,122,124,0,1764980942.5267506
125,125,124,124,124,125,123,124,0,1764980942.5267525
125,124,124,124,123,124,124,126,0,1764980942.5267553
125,124,124,124,122,123,124,126,0,1764980942.5670722
125,124,124,124,122,122,125,127,0,1764980942.567077
125,124,124,123,122,121,125,128,0,1764980942.5670793
125,124,124,123,122,122,125,127,0,1764980942.567082
125,124,124,123,123,123,124,126,0,1764980942.567084
125,124,123,123,123,124,123,124,0,1764980942.5670867
125,124,123,124,124,125,123,123,0,1764980942.5670888
125,124,123,124,124,125,123,123,0,1764980942.5670912
126,125,124,124,123,125,124,123,0,1764980942.5670936
126,125,124,124,123,124,125,124,0,1764980942.5670958
126,124,124,123,123,124,125,125,0,1764980942.567098
126,124,124,123,122,124,125,125,0,1764980942.5671
125,124,124,123,123,124,124,124,0,1764980942.5671089
125,123,124,123,124,124,124,123,0,1764980942.5671122
125,123,124,124,124,124,123,123,0,1764980942.5671155
124,123,124,124,124,123,124,123,0,1764980942.5671244
125,124,124,123,123,122,124,124,0,1764980942.6073813
124,124,124,123,122,122,125,124,0,1764980942.6073859
124,124,124,123,122,122,125,124,0,1764980942.6073883
125,124,124,123,122,123,125,124,0,1764980942.6073906
125,124,124,123,123,124,123,124,0,1764980942.607393
125,124,124,123,123,125,122,122,0,1764980942.6073956
126,124,124,124,124,125,122,122,0,1764980942.6073976
126,124,124,124,125,125,122,123,0,1764980942.6074
126,125,124,124,125,125,123,123,0,1764980942.607402
126,125,124,125,125,125,125,124,0,1764980942.6074083
126,125,125,125,124,124,126,126,0,1764980942.6074104
126,125,124,125,123,123,127,127,0,1764980942.6074126
126,124,124,125,123,124,126,126,0,1764980942.6074147
125,124,124,125,123,124,125,126,0,1764980942.6074169
125,123,124,124,123,125,124,125,0,1764980942.6074193
125,124,124,124,123,124,124,124,0,1764980942.6074216
125,124,124,124,123,124,124,123,0,1764980942.637661
125,124,124,124,123,124,124,123,0,1764980942.6376712
125,124,124,124,123,123,124,124,0,1764980942.637674
125,124,124,124,123,122,124,124,0,1764980942.6376762
125,124,124,124,123,123,123,125,0,1764980942.6376786
124,124,124,124,124,123,122,125,0,1764980942.637681
124,124,124,124,124,124,122,124,0,1764980942.6376832
125,123,124,123,124,124,122,124,0,1764980942.6376858
125,123,124,123,123,124,122,123,0,1764980942.6376882
126,124,124,123,123,124,123,122,0,1764980942.6376903
125,124,123,123,122,123,125,123,0,1764980942.6376963
125,124,123,123,122,123,126,124,0,1764980942.6376987
125,124,124,123,122,123,126,124,0,1764980942.6377008
125,124,124,123,123,124,125,124,0,1764980942.6377032
124,123,124,123,124,125,124,125,0,1764980942.6377056
124,123,124,123,124,125,123,124,0,1764980942.637708
125,123,124,123,124,125,123,123,0,1764980942.6579099
125,123,124,123,123,124,123,124,0,1764980942.6579134
126,124,124,124,123,123,124,125,0,1764980942.6579158
126,125,124,124,123,123,125,125,0,1764980942.6579185
126,125,125,125,123,123,126,126,0,1764980942.6579206
125,125,125,125,124,124,126,126,0,1764980942.657923
125,124,125,125,125,125,124,125,0,1764980942.6579254
125,124,125,125,125,125,123,124,0,1764980942.6579278
124,123,124,124,125,125,122,123,0,1764980942.65793
124,123,124,124,124,124,122,122,0,1764980942.657932
125,124,124,124,123,123,123,122,0,1764980942.6579342
125,124,124,123,122,123,123,123,0,1764980942.6579363
125,124,124,123,122,122,124,124,0,1764980942.6579385
125,124,123,123,122,122,124,124,0,1764980942.6579447
126,124,124,123,123,123,123,124,0,1764980942.6579468
126,124,123,123,123,124,123,124,0,1764980942.65795
125,124,123,123,124,125,123,124,0,1764980942.6781466
125,124,124,123,123,125,123,124,0,1764980942.6781514
126,124,124,123,123,125,124,125,0,1764980942.6781542
126,124,124,123,123,124,124,126,0,1764980942.6781566
126,124,124,124,123,123,125,126,0,1764980942.678159
126,124,124,124,123,123,124,125,0,1764980942.6781614
125,124,124,124,123,123,123,124,0,1764980942.6781638
125,124,124,124,123,124,122,123,0,1764980942.6781664
124,124,124,123,123,125,122,122,0,1764980942.6781683
124,124,124,123,123,126,122,122,0,1764980942.6781707
125,123,124,124,123,126,123,123,0,1764980942.6781728
126,123,124,124,124,126,125,124,0,1764980942.678175
126,124,124,125,123,125,126,125,0,1764980942.6781774
126,124,124,125,123,124,126,125,0,1764980942.6781795
126,124,124,125,123,123,127,125,0,1764980942.678182
125,123,124,124,123,123,125,124,0,1764980942.6781845
124,123,124,123,123,123,123,123,0,1764980942.7285414
125,123,124,123,124,123,122,124,0,1764980942.7285454
125,124,124,123,124,123,122,124,0,1764980942.728548
125,124,124,123,124,123,122,125,0,1764980942.7285504
125,124,124,124,124,122,123,125,0,1764980942.7285528
125,125,124,124,123,123,124,125,0,1764980942.728555
125,125,124,124,123,124,124,125,0,1764980942.7285573
125,125,124,125,123,124,124,124,0,1764980942.7285593
125,124,124,124,123,125,125,123,0,1764980942.7285616
125,124,124,124,124,125,125,123,0,1764980942.7285638
125,124,124,123,124,125,124,123,0,1764980942.728566
125,124,123,123,123,124,125,124,0,1764980942.7285683
125,124,123,123,123,122,125,124,0,1764980942.7285707
125,124,123,124,122,121,125,125,0,1764980942.7285726
125,124,123,123,123,122,125,124,0,1764980942.728575
125,124,123,124,123,122,124,123,0,1764980942.7285814
125,124,124,124,124,123,123,122,0,1764980942.748772
124,124,124,124,124,124,122,122,0,1764980942.7487752
124,124,124,124,124,125,122,122,0,1764980942.7487776
124,124,124,124,123,124,122,124,0,1764980942.74878
124,124,124,123,122,123,123,125,0,1764980942.7487822
125,124,124,123,122,123,124,126,0,1764980942.7487845
126,124,124,123,122,123,125,127,0,1764980942.7487867
126,124,124,123,122,124,125,126,0,1764980942.7487893
126,123,124,123,123,125,124,124,0,1764980942.7487912
126,123,124,123,123,126,124,124,0,1764980942.7487936
125,123,124,124,124,126,124,123,0,1764980942.7487998
125,124,124,124,125,126,125,123,0,1764980942.748802
125,124,124,124,125,126,126,124,0,1764980942.748804
125,125,124,125,125,125,127,125,0,1764980942.7488122
126,125,124,124,124,124,127,125,0,1764980942.7488146
126,124,124,124,124,124,126,126,0,1764980942.7488172
126,124,124,124,124,124,125,125,0,1764980942.7891643
125,123,123,123,124,124,123,124,0,1764980942.789169
125,123,123,123,123,124,123,123,0,1764980942.789176
125,124,124,123,123,124,123,123,0,1764980942.7891786
125,124,123,123,123,123,125,124,0,1764980942.7891808
125,124,123,123,122,122,126,124,0,1764980942.7891834
125,124,124,124,122,122,126,124,0,1764980942.789186
125,125,124,125,123,123,126,124,0,1764980942.7891884
125,124,124,125,124,124,125,123,0,1764980942.7891908
125,124,125,125,125,126,123,123,0,1764980942.789193
125,124,125,125,126,126,122,123,0,1764980942.7891953
125,124,125,124,125,126,122,124,0,1764980942.7891972
125,124,124,123,124,125,122,124,0,1764980942.7891996
125,124,123,123,123,124,122,125,0,1764980942.789202
125,124,123,123,122,123,123,125,0,1764980942.7892041
125,124,123,123,121,123,124,125,0,1764980942.7892065
125,124,123,123,122,123,123,125,0,1764980942.8093884
124,123,124,123,122,123,122,124,0,1764980942.809393
124,123,124,123,123,123,121,123,0,1764980942.8093956
124,123,124,123,123,123,121,122,0,1764980942.809398
124,123,124,123,123,123,121,123,0,1764980942.8094003
125,123,124,123,122,123,123,123,0,1764980942.8094027
126,124,124,124,122,123,124,124,0,1764980942.8094049
126,124,123,124,122,123,125,124,0,1764980942.8094072
126,124,124,124,123,123,125,124,0,1764980942.8094094
126,124,124,124,123,124,124,123,0,1764980942.8094113
126,123,124,124,123,125,122,123,0,1764980942.8094137
125,124,124,124,123,125,121,123,0,1764980942.8094158
125,124,124,124,124,125,122,124,0,1764980942.8094182
126,125,124,124,124,125,124,125,0,1764980942.8094203
126,124,124,124,124,125,126,126,0,1764980942.8094268
126,124,124,125,123,124,127,126,0,1764980942.8094378
126,124,124,125,124,124,127,126,0,1764980942.8597918
125,123,124,124,123,124,126,125,0,1764980942.859796
125,122,124,124,124,124,125,124,0,1764980942.8597982
125,123,124,124,124,125,124,124,0,1764980942.8598006
125,123,124,124,124,125,123,124,0,1764980942.8598027
125,123,124,125,123,124,124,125,0,1764980942.8598049
125,124,124,124,123,123,124,125,0,1764980942.8598073
125,124,124,124,122,123,125,125,0,1764980942.8598094
125,125,124,124,123,123,125,124,0,1764980942.8598115
125,125,124,123,124,123,125,123,0,1764980942.8598208
125,125,124,123,124,124,123,122,0,1764980942.8598228
125,124,124,123,124,125,122,122,0,1764980942.8598251
125,124,125,123,124,125,122,122,0,1764980942.8598273
125,124,125,123,123,124,122,123,0,1764980942.8598294
125,124,125,123,123,123,123,124,0,1764980942.8598316
126,124,124,124,122,123,125,125,0,1764980942.8598342
126,124,124,124,122,123,125,125,0,1764980942.8800468
125,123,124,124,122,124,124,125,0,1764980942.8800516
125,123,124,124,123,124,123,124,0,1764980942.8800542
125,123,124,124,124,124,122,124,0,1764980942.8800564
125,123,124,124,124,125,121,123,0,1764980942.8800585
125,124,124,124,125,125,121,123,0,1764980942.8800669
125,124,124,124,125,124,122,123,0,1764980942.8800688
125,124,124,124,124,124,124,124,0,1764980942.8800712
125,124,123,123,123,124,125,125,0,1764980942.8800733
125,124,123,123,123,123,125,124,0,1764980942.8800752
125,123,124,123,123,123,125,124,0,1764980942.8800786
124,123,124,123,122,124,124,124,0,1764980942.8800807
125,124,124,123,123,124,123,124,0,1764980942.8800828
125,124,125,124,123,124,124,124,0,1764980942.880085
125,125,125,124,124,124,125,124,0,1764980942.8800871
126,126,125,125,123,125,126,125,0,1764980942.8800895
126,126,125,125,124,125,127,125,0,1764980942.9304879
126,125,124,124,124,125,128,125,0,1764980942.9304912
126,125,124,124,124,125,127,125,0,1764980942.9304934
125,125,124,124,124,125,126,124,0,1764980942.9304955
125,124,124,124,124,125,124,123,0,1764980942.9304976
125,124,124,124,124,124,123,123,0,1764980942.9305
125,123,124,125,123,124,122,123,0,1764980942.9305022
125,123,123,124,123,124,122,123,0,1764980942.930504
125,123,123,124,122,123,123,125,0,1764980942.9305062
125,123,123,123,122,123,123,125,0,1764980942.9305084
125,124,124,123,122,124,124,126,0,1764980942.9305103
125,124,124,123,123,125,123,125,0,1764980942.9305127
126,124,124,124,123,125,123,125,0,1764980942.9305146
125,124,124,124,124,125,123,123,0,1764980942.930517
125,125,124,124,123,125,122,123,0,1764980942.930519
125,124,124,124,123,123,123,123,0,1764980942.9305215
125,124,124,124,123,122,123,124,0,1764980942.950716
124,124,124,124,123,122,123,124,0,1764980942.95072
125,124,124,124,123,123,123,125,0,1764980942.9507225
124,123,124,124,124,123,123,125,0,1764980942.9507248
124,123,124,124,124,124,122,124,0,1764980942.9507272
124,123,124,124,124,125,122,124,0,1764980942.9507294
125,123,124,124,124,126,123,124,0,1764980942.9507315
125,123,123,124,123,125,124,124,0,1764980942.950734
126,123,123,124,123,124,125,125,0,1764980942.9507358
126,123,124,124,123,123,126,125,0,1764980942.950738
126,123,124,124,123,123,126,125,0,1764980942.9507403
125,123,124,123,123,123,126,125,0,1764980942.9507425
124,124,124,123,123,124,125,124,0,1764980942.9507446
124,124,124,123,123,124,124,123,0,1764980942.9507468
124,124,124,123,123,125,124,123,0,1764980942.950749
125,124,123,123,123,125,123,123,0,1764980942.9507515
125,124,123,124,123,124,124,123,0,1764980942.971089
126,124,124,124,123,124,125,124,0,1764980942.9710937
126,124,124,124,123,123,125,125,0,1764980942.9710965
126,124,124,124,123,122,124,125,0,1764980942.9710991
126,124,124,124,124,122,123,125,0,1764980942.9711015
125,124,124,124,124,122,123,124,0,1764980942.9711037
125,124,124,124,124,122,122,124,0,1764980942.971106
124,124,124,123,123,123,122,124,0,1764980942.971112
124,124,124,124,123,123,123,125,0,1764980942.9711194
125,124,124,124,123,123,124,124,0,1764980942.9711213
125,123,124,123,122,124,125,125,0,1764980942.9711282
125,124,124,123,123,124,126,125,0,1764980942.9711308
126,124,125,124,123,125,126,125,0,1764980942.971133
126,123,125,124,123,125,125,124,0,1764980942.9711351
125,123,125,124,124,125,124,124,0,1764980942.9711373
126,124,125,124,124,126,124,123,0,1764980942.97114
126,124,125,124,124,126,124,123,0,1764980943.021884
126,124,124,124,123,124,124,124,0,1764980943.021889
126,124,124,124,124,124,125,125,0,1764980943.0218914
126,124,124,124,124,123,125,125,0,1764980943.0218937
126,124,124,123,124,123,124,124,0,1764980943.0218961
126,124,124,123,124,123,124,123,0,1764980943.0218983
125,124,124,123,124,123,123,123,0,1764980943.0219007
125,124,124,123,124,125,122,123,0,1764980943.021903
125,125,125,124,124,126,123,124,0,1764980943.0219052
125,125,125,124,123,125,123,125,0,1764980943.0219076
125,125,125,124,123,125,123,126,0,1764980943.0219152
125,125,125,124,123,125,124,125,0,1764980943.021917
125,124,124,124,123,125,124,125,0,1764980943.0219195
125,124,123,124,123,124,122,124,0,1764980943.0219216
125,124,123,124,124,124,122,123,0,1764980943.0219235
124,124,123,124,124,124,122,123,0,1764980943.0219262
125,124,123,124,124,124,121,124,0,1764980943.0421765
126,124,123,123,124,123,122,124,0,1764980943.0421815
126,124,124,123,123,123,124,125,0,1764980943.0421839
125,124,124,123,123,123,124,124,0,1764980943.0421865
125,124,124,124,123,123,125,124,0,1764980943.0421891
125,124,124,124,123,124,125,123,0,1764980943.0421915
124,123,124,124,123,125,124,122,0,1764980943.0421937
124,123,124,124,123,125,124,122,0,1764980943.042196
125,123,124,123,123,125,124,123,0,1764980943.0421982
125,123,123,123,123,124,125,124,0,1764980943.0422
125,124,123,123,123,123,125,126,0,1764980943.0422025
125,124,123,123,123,122,125,127,0,1764980943.0422084
125,124,124,123,123,122,124,126,0,1764980943.0422108
125,124,124,124,124,123,124,125,0,1764980943.0422132
125,124,124,124,124,124,123,124,0,1764980943.042215
125,124,124,124,124,124,123,123,0,1764980943.0422182
125,124,124,124,125,125,123,123,0,1764980943.062473
125,124,124,124,124,124,123,123,0,1764980943.0624769
126,124,124,124,123,123,123,124,0,1764980943.0624793
125,124,124,123,122,123,124,124,0,1764980943.0624819
125,124,124,124,123,123,124,125,0,1764980943.062484
125,124,124,124,122,123,124,125,0,1764980943.0624862
124,124,124,124,122,124,124,124,0,1764980943.0624886
124,124,124,123,122,124,123,124,0,1764980943.0624907
124,125,124,123,123,124,123,124,0,1764980943.0624967
125,125,124,123,124,124,123,124,0,1764980943.062499
126,125,124,123,124,124,124,123,0,1764980943.0625014
126,124,124,124,124,124,124,124,0,1764980943.0625033
127,124,124,124,124,124,124,125,0,1764980943.0625103
126,124,124,124,124,123,123,126,0,1764980943.0625124
125,123,124,124,123,124,123,126,0,1764980943.0625148
124,123,124,124,124,124,121,126,0,1764980943.062517
124,123,124,124,124,124,120,126,0,1764980943.103128
124,124,124,123,123,124,121,125,0,1764980943.103133
125,124,124,123,123,124,122,124,0,1764980943.1031358
126,124,124,123,123,123,124,124,0,1764980943.103138
126,124,124,123,123,123,126,124,0,1764980943.1031404
126,124,124,124,123,124,127,124,0,1764980943.1031427
126,124,124,124,124,125,126,124,0,1764980943.103145
125,124,124,124,123,125,125,124,0,1764980943.1031473
125,124,124,124,124,125,123,124,0,1764980943.1031494
125,124,124,123,123,125,122,124,0,1764980943.1031578
125,124,124,123,123,124,123,124,0,1764980943.1031601
125,124,124,124,122,124,124,124,0,1764980943.1031623
125,124,124,124,122,123,125,125,0,1764980943.1031647
125,124,124,124,122,123,126,125,0,1764980943.1031668
125,124,124,124,122,124,126,124,0,1764980943.103169
125,124,124,124,123,124,125,124,0,1764980943.1031713
125,124,124,124,124,124,123,124,0,1764980943.1537814
125,123,124,124,123,124,123,124,0,1764980943.1537867
125,124,124,124,123,124,123,124,0,1764980943.1537895
125,124,124,124,122,124,123,125,0,1764980943.1537917
125,124,123,123,122,124,123,126,0,1764980943.153794
125,124,123,123,122,123,124,126,0,1764980943.1537967
125,124,123,123,122,123,123,126,0,1764980943.153799
124,124,123,123,123,123,123,125,0,1764980943.1538014
124,123,123,123,124,123,123,124,0,1764980943.1538038
124,123,123,123,124,122,122,122,0,1764980943.1538112
124,124,124,124,124,123,123,122,0,1764980943.1538136
125,124,124,124,124,123,124,122,0,1764980943.1538157
125,124,124,124,124,122,126,123,0,1764980943.1538181
125,124,124,124,124,123,127,124,0,1764980943.1538205
125,124,124,124,124,124,127,124,0,1764980943.153823
125,124,124,124,124,124,126,124,0,1764980943.1538262
124,123,124,123,124,125,124,123,0,1764980943.1740127
125,123,124,123,124,126,123,123,0,1764980943.174017
124,123,124,123,124,125,122,123,0,1764980943.1740196
125,123,124,123,124,124,123,124,0,1764980943.1740222
125,124,123,123,123,124,125,124,0,1764980943.1740243
125,124,124,124,123,124,126,125,0,1764980943.174027
125,125,124,124,122,123,128,125,0,1764980943.1740294
126,125,124,123,122,124,128,124,0,1764980943.1740317
126,125,124,123,122,124,126,123,0,1764980943.1740339
126,124,124,123,123,124,124,122,0,1764980943.1740363
125,124,124,123,123,123,122,122,0,1764980943.1740384
125,124,124,123,123,124,120,122,0,1764980943.1740406
125,123,124,124,123,123,120,123,0,1764980943.174043
125,123,124,124,122,123,121,125,0,1764980943.174045
126,124,124,124,122,123,122,126,0,1764980943.1740515
125,124,124,124,123,123,123,125,0,1764980943.1740544
125,124,124,124,124,123,124,125,0,1764980943.1942499
125,124,124,124,125,124,124,124,0,1764980943.1942632
125,124,125,125,125,125,124,123,0,1764980943.194266
125,124,125,125,125,125,125,123,0,1764980943.1942685
125,124,125,125,125,125,126,124,0,1764980943.194271
126,125,125,125,123,125,126,125,0,1764980943.1942732
126,125,125,124,123,124,126,125,0,1764980943.1942756
126,125,125,124,122,124,125,125,0,1764980943.194278
126,125,124,123,123,124,124,124,0,1764980943.1942806
126,125,124,123,123,125,123,124,0,1764980943.194283
125,124,123,123,123,125,122,123,0,1764980943.1942854
125,124,123,123,123,125,122,123,0,1764980943.1942875
125,124,123,123,124,125,123,124,0,1764980943.1942897
126,124,124,124,124,125,124,125,0,1764980943.1942923
126,124,124,124,124,124,126,126,0,1764980943.194298
126,124,124,125,124,124,127,127,0,1764980943.194301
126,124,124,125,125,124,126,127,0,1764980943.2447083
125,124,124,125,125,124,124,126,0,1764980943.244713
125,123,124,125,124,125,123,125,0,1764980943.2447155
125,123,124,125,125,125,123,125,0,1764980943.2447178
125,123,124,124,124,124,123,124,0,1764980943.2447202
125,123,124,124,123,124,124,124,0,1764980943.2447224
125,124,124,123,122,124,125,124,0,1764980943.2447248
125,124,124,123,122,123,125,124,0,1764980943.2447271
125,124,124,123,122,123,126,123,0,1764980943.2447293
125,124,124,123,122,124,124,123,0,1764980943.2447314
125,124,124,123,123,124,123,122,0,1764980943.2447338
125,124,124,123,123,125,122,123,0,1764980943.2447357
125,124,124,123,124,125,122,123,0,1764980943.2447414
125,124,123,123,123,125,123,124,0,1764980943.244748
125,124,123,123,124,125,126,125,0,1764980943.2447503
125,124,123,123,123,124,128,125,0,1764980943.244753
125,123,123,123,123,123,129,125,0,1764980943.2649078
124,123,123,124,123,123,128,125,0,1764980943.264913
124,123,123,123,124,123,126,124,0,1764980943.2649167
124,123,124,123,124,123,123,123,0,1764980943.2649205
124,124,124,123,124,124,122,123,0,1764980943.2649248
125,124,124,123,124,124,121,124,0,1764980943.2649288
125,124,124,123,123,124,121,125,0,1764980943.2649326
126,124,124,123,123,124,122,126,0,1764980943.264936
126,124,124,124,123,124,123,126,0,1764980943.2649398
125,123,124,123,123,125,124,126,0,1764980943.2649472
125,123,123,123,124,125,123,124,0,1764980943.2649508
124,123,123,123,124,125,123,122,0,1764980943.2649543
124,123,123,123,124,125,122,122,0,1764980943.2649577
125,123,123,124,124,125,122,122,0,1764980943.2649617
125,124,123,124,123,124,123,123,0,1764980943.2649662
125,125,124,124,122,124,124,124,0,1764980943.2649703
126,125,124,124,122,124,125,125,0,1764980943.2851942
126,125,124,124,123,124,126,125,0,1764980943.2852027
126,124,125,124,124,123,125,124,0,1764980943.2852056
126,124,124,124,124,123,124,123,0,1764980943.2852077
126,124,125,125,124,124,123,123,0,1764980943.2852104
126,124,125,125,124,124,124,123,0,1764980943.2852125
126,125,125,125,124,124,124,124,0,1764980943.285215
126,125,125,125,123,125,125,125,0,1764980943.285217
126,125,124,125,123,124,125,125,0,1764980943.2852197
126,124,124,124,124,124,126,125,0,1764980943.2852218
126,124,124,124,124,124,125,125,0,1764980943.285224
125,123,124,124,125,124,124,125,0,1764980943.2852263
125,123,124,123,125,124,123,124,0,1764980943.2852285
125,124,124,124,125,124,123,124,0,1764980943.2852309
125,124,124,124,124,123,123,123,0,1764980943.2852333
125,124,124,124,123,124,124,124,0,1764980943.2852356
126,125,124,125,123,124,124,124,0,1764980943.3356133
126,124,124,124,122,124,124,125,0,1764980943.335618
125,124,124,124,122,124,123,125,0,1764980943.3356204
125,123,124,124,122,124,122,124,0,1764980943.335623
125,123,124,123,123,125,120,123,0,1764980943.335625
125,123,124,123,123,124,120,123,0,1764980943.3356273
125,123,124,123,123,124,120,123,0,1764980943.3356295
126,124,124,123,123,124,122,123,0,1764980943.335632
126,124,124,123,123,124,124,124,0,1764980943.3356342
125,124,124,124,124,123,126,124,0,1764980943.3356364
125,124,123,124,124,124,126,125,0,1764980943.3356388
125,124,123,124,124,125,125,124,0,1764980943.335641
125,124,124,124,124,124,123,123,0,1764980943.335643
125,123,123,124,124,126,122,123,0,1764980943.3356454
125,123,123,124,123,125,122,123,0,1764980943.3356476
125,123,123,124,123,124,123,124,0,1764980943.3356547
125,124,124,124,122,122,126,124,0,1764980943.355862
125,124,124,123,122,122,127,126,0,1764980943.3558662
125,124,124,123,123,121,127,126,0,1764980943.3558686
125,124,124,123,123,122,126,125,0,1764980943.355871
125,124,124,123,124,123,126,124,0,1764980943.3558733
125,124,124,123,124,125,124,123,0,1764980943.3558757
125,124,124,123,124,125,123,122,0,1764980943.3558784
125,124,124,124,124,126,123,122,0,1764980943.3558848
125,124,124,123,123,125,123,123,0,1764980943.3558872
125,124,124,123,122,124,123,124,0,1764980943.3558893
125,124,123,124,122,124,124,125,0,1764980943.3558915
126,124,124,124,122,124,125,126,0,1764980943.3558939
126,124,124,124,122,124,125,126,0,1764980943.355896
126,124,124,124,123,124,125,126,0,1764980943.3558984
126,124,124,124,124,125,124,125,0,1764980943.3559008
127,124,124,124,124,125,124,124,0,1764980943.355903
126,124,124,124,124,124,124,124,0,1764980943.3962853
126,124,123,124,123,124,124,123,0,1764980943.3962903
126,124,123,124,123,123,125,124,0,1764980943.3962932
125,123,123,123,123,124,125,124,0,1764980943.3962965
125,123,123,123,124,124,124,125,0,1764980943.396304
125,123,124,123,124,124,123,124,0,1764980943.3963075
124,124,124,124,124,125,123,125,0,1764980943.3963099
124,124,125,124,124,124,123,125,0,1764980943.396312
125,125,125,124,124,124,124,125,0,1764980943.3963141
126,125,125,125,123,124,125,125,0,1764980943.3963172
127,125,125,125,123,123,126,125,0,1764980943.3963192
127,125,125,125,122,123,125,125,0,1764980943.3963215
126,124,124,124,123,124,123,124,0,1764980943.3963263
125,123,124,124,124,124,122,123,0,1764980943.3963292
125,123,123,123,124,124,122,123,0,1764980943.3963315
124,123,123,123,124,125,122,123,0,1764980943.396334
124,123,123,122,124,125,123,123,0,1764980943.4265604
125,124,123,122,123,125,125,124,0,1764980943.4265647
125,125,123,123,123,124,127,124,0,1764980943.4265668
125,125,124,123,122,124,126,124,0,1764980943.4265692
125,125,124,124,123,123,125,124,0,1764980943.4265714
125,124,124,124,123,123,124,123,0,1764980943.426581
125,124,124,124,124,124,123,122,0,1764980943.4265833
125,124,124,124,124,124,122,122,0,1764980943.4265857
126,123,124,124,124,124,122,123,0,1764980943.4265926
125,124,124,124,124,124,123,123,0,1764980943.4265947
126,124,124,124,124,124,124,124,0,1764980943.426597
125,124,123,125,123,124,125,125,0,1764980943.4265993
126,124,124,125,123,124,124,125,0,1764980943.4266014
126,124,124,125,124,124,124,124,0,1764980943.4266036
125,124,124,124,124,124,123,123,0,1764980943.4266055
125,124,124,124,124,125,122,122,0,1764980943.4266145
125,124,124,124,124,125,123,122,0,1764980943.467015
125,124,124,123,124,125,124,122,0,1764980943.4670196
125,124,123,123,123,125,125,124,0,1764980943.4670224
126,124,123,123,123,125,125,125,0,1764980943.467025
126,124,123,123,123,125,125,125,0,1764980943.467028
126,124,123,123,122,125,124,125,0,1764980943.4670308
125,124,123,123,123,124,123,125,0,1764980943.4670336
125,124,124,123,123,123,123,124,0,1764980943.4670362
125,124,124,124,124,123,123,124,0,1764980943.4670389
125,125,124,124,125,122,123,125,0,1764980943.4670413
125,125,124,124,125,122,124,126,0,1764980943.467044
125,124,124,124,124,123,124,126,0,1764980943.4670467
125,124,124,124,123,123,124,126,0,1764980943.4670491
125,123,124,124,124,124,124,125,0,1764980943.4670517
125,123,124,124,123,124,123,124,0,1764980943.4670544
124,123,124,124,123,124,122,124,0,1764980943.4670575
124,123,124,123,123,124,122,123,0,1764980943.4872434
124,123,124,123,123,124,121,123,0,1764980943.4872477
125,124,124,123,122,123,122,123,0,1764980943.4872499
126,124,124,123,122,123,123,124,0,1764980943.487252
126,125,123,124,122,123,125,124,0,1764980943.4872544
126,125,123,124,122,123,126,124,0,1764980943.4872568
126,125,123,124,123,123,126,124,0,1764980943.487259
125,125,124,124,124,124,126,123,0,1764980943.4872613
124,124,124,124,124,125,124,122,0,1764980943.4872692
124,124,124,124,124,126,124,123,0,1764980943.487271
125,124,124,125,124,126,124,123,0,1764980943.4872735
126,125,124,125,124,126,125,124,0,1764980943.4872756
126,124,124,125,124,126,126,125,0,1764980943.4872777
126,124,124,125,125,125,126,125,0,1764980943.48728
126,124,124,125,126,125,126,125,0,1764980943.4872823
125,124,124,124,126,124,125,124,0,1764980943.4872847
125,124,124,123,125,124,123,123,0,1764980943.5174754
125,124,124,123,123,124,123,123,0,1764980943.51748
124,124,124,124,123,124,123,124,0,1764980943.5174825
124,123,123,124,123,124,123,125,0,1764980943.517485
125,123,123,124,123,124,124,125,0,1764980943.5174873
125,123,123,124,123,124,125,125,0,1764980943.5174897
125,123,124,124,124,124,125,125,0,1764980943.517492
125,123,124,123,123,123,124,123,0,1764980943.517494
125,123,124,123,123,123,123,122,0,1764980943.5174963
125,124,124,123,124,123,122,122,0,1764980943.5175035
125,124,124,123,124,123,121,123,0,1764980943.5175061
125,124,124,123,123,123,122,124,0,1764980943.5175083
126,124,124,123,124,123,123,124,0,1764980943.5175104
126,124,124,123,124,123,124,125,0,1764980943.517513
126,124,124,124,124,123,125,125,0,1764980943.517515
125,124,124,123,124,124,124,124,0,1764980943.5175176
125,124,124,123,123,124,123,123,0,1764980943.5579104
125,124,124,123,123,125,124,123,0,1764980943.5579157
125,124,123,123,122,125,124,123,0,1764980943.5579183
125,124,123,123,122,124,125,124,0,1764980943.557921
126,124,123,124,123,124,126,124,0,1764980943.5579233
126,124,124,124,123,123,128,125,0,1764980943.557926
125,124,124,124,123,123,127,124,0,1764980943.5579286
125,124,124,124,124,124,126,124,0,1764980943.5579307
125,124,124,124,124,125,125,123,0,1764980943.557933
125,123,124,124,124,125,124,123,0,1764980943.5579357
124,123,124,124,123,125,123,123,0,1764980943.5579379
125,124,124,123,123,124,123,125,0,1764980943.5579402
125,124,123,123,122,123,124,126,0,1764980943.5579426
125,124,123,124,122,122,125,127,0,1764980943.5579445
126,124,124,124,122,123,125,128,0,1764980943.557947
126,124,124,124,123,123,125,127,0,1764980943.5579538
126,124,124,124,124,124,124,126,0,1764980943.578183
126,124,124,124,124,125,122,125,0,1764980943.5781877
125,124,124,124,124,125,122,123,0,1764980943.5781903
125,124,124,123,124,124,122,123,0,1764980943.5781927
125,124,123,123,123,124,122,123,0,1764980943.578195
125,124,123,123,122,124,123,125,0,1764980943.5781977
125,124,123,123,123,123,124,125,0,1764980943.5782
125,123,123,123,123,123,124,125,0,1764980943.5782025
125,123,123,123,123,123,124,124,0,1764980943.5782044
125,123,123,123,123,123,123,122,0,1764980943.5782068
125,123,124,123,124,123,123,122,0,1764980943.5782132
125,123,124,124,123,123,122,121,0,1764980943.5782154
125,123,124,124,123,124,123,122,0,1764980943.5782175
126,124,124,124,123,124,124,122,0,1764980943.57822
126,124,124,124,123,123,125,123,0,1764980943.5782218
126,124,124,124,123,124,125,124,0,1764980943.5782244
125,124,124,124,124,125,125,124,0,1764980943.6286142
125,124,123,124,124,125,124,124,0,1764980943.6286182
124,124,123,123,124,125,122,123,0,1764980943.6286209
124,123,123,123,124,126,122,123,0,1764980943.6286232
124,124,124,123,123,125,123,123,0,1764980943.6286256
125,124,124,123,123,124,124,124,0,1764980943.6286278
126,124,125,123,122,123,126,125,0,1764980943.62863
127,124,125,124,122,123,127,125,0,1764980943.6286383
127,124,125,124,122,123,126,124,0,1764980943.6286404
126,124,125,124,123,124,125,124,0,1764980943.6286428
126,124,124,124,124,125,124,123,0,1764980943.6286452
125,124,124,124,124,125,123,122,0,1764980943.6286473
125,124,124,123,124,125,122,123,0,1764980943.6286497
125,124,124,123,124,124,122,125,0,1764980943.6286519
125,124,124,123,123,124,123,125,0,1764980943.628654
125,124,124,123,123,124,124,126,0,1764980943.6286564
125,124,124,124,123,124,124,125,0,1764980943.6488872
126,124,124,124,123,124,123,125,0,1764980943.648892
126,124,124,124,123,125,122,124,0,1764980943.6488948
125,123,124,124,124,126,122,124,0,1764980943.6488972
125,123,124,123,123,125,122,123,0,1764980943.6488996
125,123,124,123,123,124,122,124,0,1764980943.6489022
124,124,124,123,123,123,123,124,0,1764980943.6489046
124,124,124,123,124,122,125,124,0,1764980943.6489067
125,124,124,123,124,122,125,125,0,1764980943.648913
125,124,124,124,125,122,126,124,0,1764980943.6489153
125,123,124,123,125,123,126,124,0,1764980943.6489174
125,123,124,123,125,124,124,123,0,1764980943.6489198
125,123,124,123,124,124,123,122,0,1764980943.648922
125,124,124,123,123,125,122,123,0,1764980943.648924
125,124,124,124,123,124,123,124,0,1764980943.6489265
126,124,124,124,123,124,124,124,0,1764980943.648929
126,125,124,124,123,124,125,125,0,1764980943.6691155
126,125,124,124,123,123,125,124,0,1764980943.6691203
125,124,124,124,123,124,125,124,0,1764980943.6691236
125,124,123,123,123,124,124,123,0,1764980943.669127
124,124,123,123,123,124,122,123,0,1764980943.669131
125,124,123,123,123,124,122,123,0,1764980943.6691346
125,125,124,123,123,124,122,124,0,1764980943.6691375
126,125,124,123,123,123,123,125,0,1764980943.6691396
126,125,124,124,123,123,125,125,0,1764980943.669142
126,124,124,124,123,124,126,126,0,1764980943.6691492
126,124,125,124,123,124,126,126,0,1764980943.6691518
125,123,125,124,124,124,125,125,0,1764980943.6691542
125,123,125,124,124,124,124,125,0,1764980943.6691563
125,124,124,124,124,125,124,124,0,1764980943.6691697
125,124,124,124,124,124,124,124,0,1764980943.6691723
125,125,125,125,123,124,124,124,0,1764980943.6691751
126,125,124,124,123,124,125,124,0,1764980943.739921
126,124,124,124,123,125,125,124,0,1764980943.739926
125,124,124,124,123,125,125,123,0,1764980943.7399287
125,124,124,124,123,125,124,123,0,1764980943.739931
126,124,124,124,124,125,123,123,0,1764980943.7399337
126,124,124,123,124,125,122,123,0,1764980943.739936
127,125,124,123,124,125,123,123,0,1764980943.7399383
127,125,124,123,124,124,123,124,0,1764980943.7399406
127,124,124,123,124,124,125,124,0,1764980943.739943
126,124,123,123,123,123,125,124,0,1764980943.7399452
125,124,123,124,123,122,124,125,0,1764980943.7399554
125,123,124,124,124,122,124,124,0,1764980943.7399578
125,123,124,124,124,122,123,123,0,1764980943.73996
125,123,124,124,123,123,122,123,0,1764980943.7399623
125,124,124,124,123,124,123,123,0,1764980943.7399645
125,124,123,124,123,125,124,124,0,1764980943.7399716
125,124,123,124,122,125,126,124,0,1764980943.7602043
125,124,123,123,123,125,127,125,0,1764980943.760208
125,124,123,123,123,124,127,125,0,1764980943.7602105
125,124,123,123,123,123,126,123,0,1764980943.7602124
125,123,123,123,123,123,125,123,0,1764980943.7602148
125,123,123,124,123,124,123,122,0,1764980943.7602172
125,124,123,124,123,124,123,123,0,1764980943.7602193
125,124,123,124,123,124,122,124,0,1764980943.760226
125,124,123,124,123,123,123,125,0,1764980943.7602284
125,125,124,124,123,123,124,126,0,1764980943.7602305
125,124,124,123,123,124,124,125,0,1764980943.7602327
125,124,124,123,123,124,124,125,0,1764980943.760235
125,124,124,124,124,125,123,124,0,1764980943.7602372
125,123,124,124,124,125,122,123,0,1764980943.7602394
124,123,124,124,124,125,122,122,0,1764980943.7602415
124,123,124,124,123,124,123,122,0,1764980943.760248
124,123,124,123,123,124,124,123,0,1764980943.7803946
124,123,124,123,123,123,125,123,0,1764980943.7803984
125,123,124,123,123,123,125,123,0,1764980943.7804008
125,123,124,123,123,123,125,123,0,1764980943.7804027
125,123,124,123,124,123,123,123,0,1764980943.780405
125,124,124,123,124,124,122,122,0,1764980943.780407
126,124,124,124,124,124,123,123,0,1764980943.7804093
126,124,124,124,124,124,123,124,0,1764980943.7804117
126,124,124,124,124,123,125,126,0,1764980943.7804177
126,125,124,125,124,123,125,126,0,1764980943.78042
126,124,124,125,123,123,125,127,0,1764980943.7804224
126,124,124,124,123,123,124,126,0,1764980943.7804244
125,124,124,123,123,124,123,126,0,1764980943.7804267
124,123,124,123,123,124,123,124,0,1764980943.7804291
124,123,124,123,123,124,122,123,0,1764980943.780431
124,123,124,123,123,124,123,124,0,1764980943.7804334
125,124,124,124,123,124,125,124,0,1764980943.8006206
126,125,124,125,123,124,126,125,0,1764980943.8006241
126,125,124,125,123,124,127,125,0,1764980943.8006265
126,125,124,125,124,125,128,126,0,1764980943.8006284
126,124,124,124,124,125,127,125,0,1764980943.8006308
126,124,124,123,124,125,126,125,0,1764980943.8006327
125,123,124,123,124,125,124,124,0,1764980943.800635
124,124,124,123,124,125,122,123,0,1764980943.8006372
125,124,123,123,123,124,122,122,0,1764980943.8006394
125,124,123,123,122,124,121,122,0,1764980943.8006415
125,125,123,123,122,124,121,122,0,1764980943.800644
125,125,123,123,122,123,123,123,0,1764980943.8006458
125,125,124,123,123,124,124,124,0,1764980943.8006482
125,124,124,124,124,123,124,124,0,1764980943.8006506
125,124,124,124,124,123,124,125,0,1764980943.8006527
125,124,124,124,125,124,124,126,0,1764980943.8006556
125,124,124,124,124,124,124,126,0,1764980943.8511465
125,124,124,124,124,124,124,126,0,1764980943.8511515
125,124,124,124,123,124,123,126,0,1764980943.8511539
125,123,124,124,123,123,123,125,0,1764980943.8511565
125,123,124,124,123,123,123,125,0,1764980943.8511589
125,123,124,124,123,123,123,124,0,1764980943.8511612
125,123,123,124,124,122,122,123,0,1764980943.8511636
125,123,124,124,124,123,123,123,0,1764980943.8511658
125,124,124,125,124,124,123,123,0,1764980943.851168
126,124,124,125,123,124,124,124,0,1764980943.85117
126,124,124,124,123,124,124,124,0,1764980943.8511724
126,124,124,124,123,125,125,125,0,1764980943.8511744
126,124,124,123,123,124,125,125,0,1764980943.8511767
125,124,124,123,123,124,124,124,0,1764980943.8511786
125,124,124,123,124,124,124,123,0,1764980943.851186
124,124,124,123,124,125,124,122,0,1764980943.8511975
124,124,124,123,124,125,124,122,0,1764980943.8713484
125,124,124,123,123,125,124,122,0,1764980943.871353
125,124,124,123,123,124,125,123,0,1764980943.871355
125,124,124,123,122,123,126,124,0,1764980943.8713574
125,124,124,123,122,122,126,125,0,1764980943.87136
125,124,123,123,122,122,125,125,0,1764980943.871362
125,124,123,123,122,123,124,125,0,1764980943.8713644
125,123,123,124,122,124,124,125,0,1764980943.871374
125,123,124,124,123,125,123,124,0,1764980943.871376
125,124,124,124,123,125,123,124,0,1764980943.8713784
125,124,124,124,123,125,124,124,0,1764980943.8713806
125,124,124,124,123,124,124,125,0,1764980943.871383
125,124,124,123,123,123,124,126,0,1764980943.8713853
125,125,124,124,123,123,124,125,0,1764980943.8713875
125,125,124,124,124,124,124,125,0,1764980943.8713896
125,125,124,124,125,124,123,124,0,1764980943.8713923
125,124,124,124,125,125,124,124,0,1764980943.9116597
126,125,125,125,125,125,125,124,0,1764980943.9116752
126,124,125,125,124,125,125,124,0,1764980943.9116774
127,124,125,125,123,124,127,125,0,1764980943.9116797
127,125,125,125,122,124,127,126,0,1764980943.9116857
127,125,124,125,122,124,126,126,0,1764980943.9116876
126,124,124,124,123,123,124,125,0,1764980943.91169
126,124,124,124,124,123,123,124,0,1764980943.9116976
125,124,124,123,124,124,122,124,0,1764980943.9117
125,124,124,123,125,124,121,123,0,1764980943.9117022
125,124,125,123,125,125,123,124,0,1764980943.9117048
125,125,125,124,124,125,125,124,0,1764980943.921793
126,124,124,124,123,125,125,125,0,1764980943.9218068
126,124,124,124,123,124,125,125,0,1764980943.9218094
125,124,124,123,122,124,124,125,0,1764980943.9218113
125,124,123,124,122,124,123,124,0,1764980943.921814
124,123,123,123,123,124,122,123,0,1764980943.9420478
124,123,124,124,123,123,122,122,0,1764980943.9420521
124,123,124,123,124,123,122,122,0,1764980943.9420545
124,123,124,123,124,123,123,123,0,1764980943.942057
125,124,124,124,123,124,125,124,0,1764980943.9420593
125,124,124,124,123,123,125,125,0,1764980943.942062
125,124,124,124,124,123,125,125,0,1764980943.9420638
124,124,124,124,124,124,125,124,0,1764980943.9420662
124,124,124,124,124,124,123,123,0,1764980943.9420683
124,124,124,124,124,124,122,123,0,1764980943.9420705
124,124,124,123,123,125,122,123,0,1764980943.9420729
125,124,124,123,122,125,123,124,0,1764980943.9420748
126,124,124,123,122,125,125,125,0,1764980943.942077
126,123,124,123,122,124,125,125,0,1764980943.9420793
125,123,124,123,121,123,126,126,0,1764980943.9420812
125,123,124,123,122,124,125,125,0,1764980943.9420843
125,123,123,124,123,124,124,124,0,1764980943.9622746
125,123,123,124,124,124,123,122,0,1764980943.9622777
125,123,123,124,124,124,123,121,0,1764980943.9622803
126,124,124,123,124,124,123,122,0,1764980943.9622824
126,124,124,123,123,124,124,122,0,1764980943.9622846
126,124,124,123,122,124,125,123,0,1764980943.962287
125,124,124,123,122,124,125,124,0,1764980943.962289
125,124,124,124,123,124,125,125,0,1764980943.9622912
124,124,124,124,123,124,124,125,0,1764980943.9622931
124,124,124,124,124,124,123,125,0,1764980943.9622955
124,124,124,125,124,124,122,125,0,1764980943.962298
125,124,124,125,124,124,123,125,0,1764980943.9623
125,124,124,124,123,123,124,125,0,1764980943.9623022
126,125,124,124,123,123,125,124,0,1764980943.9623044
126,125,125,124,122,123,126,124,0,1764980943.9623065
126,124,124,123,123,123,127,124,0,1764980943.9623091
125,123,124,123,124,123,126,124,0,1764980944.0026116
126,123,124,123,124,124,124,124,0,1764980944.0127015
125,123,124,123,124,124,123,124,0,1764980944.0127056
125,123,124,123,124,124,123,124,0,1764980944.012708
126,124,124,123,123,124,123,125,0,1764980944.01271
126,125,124,124,123,124,123,125,0,1764980944.0127122
126,126,125,124,123,124,123,127,0,1764980944.01272
126,125,125,124,124,124,124,127,0,1764980944.0127225
126,125,124,124,124,125,123,125,0,1764980944.0127246
125,125,124,124,124,125,122,124,0,1764980944.0127268
125,124,124,123,124,125,122,123,0,1764980944.0127292
125,124,124,124,124,124,122,123,0,1764980944.0127313
125,124,124,124,123,124,122,123,0,1764980944.0127335
125,124,124,124,123,124,123,124,0,1764980944.0127358
125,124,124,124,123,123,124,125,0,1764980944.012738
126,124,124,124,123,123,124,125,0,1764980944.0127406
126,124,124,123,124,124,125,125,0,1764980944.0328999
126,124,124,123,124,124,124,123,0,1764980944.0329046
125,124,124,123,124,125,124,122,0,1764980944.0329084
125,123,124,123,124,125,124,121,0,1764980944.032912
125,123,124,124,123,125,124,122,0,1764980944.0329154
124,123,124,124,123,125,124,123,0,1764980944.032919
125,123,124,124,122,124,124,123,0,1764980944.0329225
125,123,124,124,122,123,124,124,0,1764980944.0329275
126,123,124,124,122,124,124,124,0,1764980944.0329378
125,123,124,124,123,123,124,124,0,1764980944.0329413
125,123,124,124,123,124,123,124,0,1764980944.032945
125,124,124,124,124,125,122,124,0,1764980944.0329483
125,124,125,124,124,125,122,124,0,1764980944.0329518
125,124,124,124,124,124,123,124,0,1764980944.0329552
125,125,124,124,124,124,124,124,0,1764980944.0329587
126,124,124,124,123,123,126,124,0,1764980944.0329626
125,124,124,124,123,123,127,124,0,1764980944.0733016
125,124,123,123,123,123,127,124,0,1764980944.0733068
125,123,123,123,123,124,126,124,0,1764980944.0733097
125,123,123,123,123,124,124,124,0,1764980944.073312
125,123,124,122,123,124,123,124,0,1764980944.0733147
125,124,123,122,123,124,123,124,0,1764980944.0733168
124,124,123,123,123,124,124,124,0,1764980944.0733192
125,124,124,124,122,124,125,125,0,1764980944.073321
125,124,124,124,122,124,124,125,0,1764980944.073327
125,124,125,125,123,124,124,125,0,1764980944.0733292
125,124,125,125,123,125,123,124,0,1764980944.0733316
126,124,125,125,124,125,122,124,0,1764980944.073334
125,124,125,124,124,125,121,123,0,1764980944.0733364
125,124,124,124,124,125,122,123,0,1764980944.0733383
125,124,124,124,123,124,123,124,0,1764980944.0733404
125,124,124,124,123,123,124,125,0,1764980944.073348
125,124,124,124,122,123,125,125,0,1764980944.0934858
125,124,124,124,122,123,125,125,0,1764980944.0934904
126,124,124,125,122,124,124,125,0,1764980944.093493
126,124,124,124,123,124,123,124,0,1764980944.0934954
126,125,124,124,123,124,122,123,0,1764980944.0934978
126,125,124,124,124,124,121,123,0,1764980944.0935094
126,125,125,124,124,124,122,124,0,1764980944.0935116
126,125,124,124,124,124,123,125,0,1764980944.093514
126,125,124,124,123,124,124,126,0,1764980944.0935163
126,124,124,124,124,124,125,126,0,1764980944.0935225
126,124,124,124,124,125,125,126,0,1764980944.0935245
125,123,124,124,124,125,124,124,0,1764980944.0935268
124,123,124,123,125,124,123,122,0,1764980944.0935287
124,124,124,123,125,124,122,121,0,1764980944.093531
124,124,124,123,125,125,122,122,0,1764980944.093533
125,125,124,124,125,125,124,123,0,1764980944.0935354
125,124,124,123,124,124,125,124,0,1764980944.1136796
125,124,124,123,124,124,126,125,0,1764980944.1136844
126,124,124,124,124,124,126,126,0,1764980944.1136868
126,124,123,124,124,124,124,125,0,1764980944.1136894
125,124,123,124,124,124,123,123,0,1764980944.113692
125,124,123,124,124,124,123,122,0,1764980944.1136944
125,123,123,124,124,124,123,122,0,1764980944.1136968
125,123,123,123,124,123,124,123,0,1764980944.123811
