emg0,emg1,emg2,emg3,emg4,emg5,emg6,emg7,label,timestamp
125,124,124,124,124,124,124,124,0,1761604601.2676728
125,124,124,124,124,124,124,124,0,1761604601.2676914
125,124,124,124,124,124,124,124,0,1761604601.2676966
125,124,124,125,124,124,124,124,0,1761604601.2677007
125,124,124,125,124,124,124,125,0,1761604601.2677143
125,125,124,125,124,124,124,125,0,1761604601.2677197
125,125,125,124,124,124,124,124,0,1761604601.2677243
125,125,125,124,124,124,124,124,0,1761604601.267729
125,125,124,124,123,124,124,124,0,1761604601.267736
125,124,124,124,123,124,124,124,0,1761604601.2677414
125,124,124,123,123,124,124,124,0,1761604601.2677462
125,124,124,123,123,124,124,124,0,1761604601.2677512
125,124,124,124,123,124,124,124,0,1761604601.2677557
125,124,124,124,123,124,124,125,0,1761604601.2677603
125,124,124,124,124,125,124,124,0,1761604601.267765
126,124,124,124,124,124,124,124,0,1761604601.2677722
125,125,124,124,124,124,124,124,0,1761604601.2879784
125,124,124,124,124,124,124,124,0,1761604601.2879858
125,124,124,124,124,124,124,124,0,1761604601.2879913
125,124,124,124,123,124,124,124,0,1761604601.287996
125,124,124,124,123,124,124,124,0,1761604601.2880058
125,124,124,124,124,124,124,124,0,1761604601.2880113
125,124,124,124,124,124,124,125,0,1761604601.288016
125,124,124,124,124,124,124,125,0,1761604601.288021
125,124,124,124,124,125,124,124,0,1761604601.2880256
125,124,124,124,123,124,124,124,0,1761604601.2880304
125,124,124,124,123,124,124,124,0,1761604601.2880354
125,124,124,124,123,124,124,124,0,1761604601.28804
125,124,124,124,123,124,124,124,0,1761604601.2880445
125,124,124,124,123,124,124,124,0,1761604601.2880492
125,124,125,124,123,124,124,124,0,1761604601.2880538
125,124,125,124,123,124,124,125,0,1761604601.288059
125,124,125,124,123,124,124,125,0,1761604601.3284216
125,124,125,124,124,124,124,125,0,1761604601.32843
125,124,125,124,123,124,124,125,0,1761604601.328435
125,124,124,124,123,124,124,124,0,1761604601.3284404
125,124,124,124,123,124,124,124,0,1761604601.3284452
125,124,124,124,123,124,124,124,0,1761604601.3284502
125,124,124,124,123,124,124,124,0,1761604601.3284552
125,124,124,124,124,124,124,124,0,1761604601.32846
125,124,124,124,124,124,124,124,0,1761604601.328465
125,124,124,124,124,124,124,124,0,1761604601.32847
125,124,125,124,124,124,124,124,0,1761604601.328475
125,124,124,124,124,124,124,124,0,1761604601.3284798
125,125,124,124,124,124,124,124,0,1761604601.3284843
125,125,124,124,124,124,124,124,0,1761604601.3284893
125,125,124,124,124,124,124,124,0,1761604601.3284938
125,125,124,124,124,124,124,124,0,1761604601.3284996
125,125,124,124,124,125,124,124,0,1761604601.3588076
125,124,124,124,124,124,124,124,0,1761604601.358815
125,124,124,124,124,124,124,124,0,1761604601.3588202
125,124,124,124,124,124,124,124,0,1761604601.3588252
125,124,124,124,124,124,124,124,0,1761604601.35883
125,124,124,124,123,124,124,124,0,1761604601.3588355
125,124,124,124,124,124,124,124,0,1761604601.35884
125,124,124,124,124,124,124,124,0,1761604601.358845
125,124,124,125,124,124,124,124,0,1761604601.3588493
125,124,124,125,124,124,124,124,0,1761604601.358854
125,124,124,124,124,124,124,124,0,1761604601.358859
125,125,124,124,124,124,124,124,0,1761604601.3588703
125,125,124,124,123,124,124,124,0,1761604601.3588753
125,125,124,124,123,124,124,124,0,1761604601.3588793
125,124,124,124,124,124,124,124,0,1761604601.3588843
125,124,125,124,124,124,124,124,0,1761604601.3588898
125,124,125,124,124,124,124,124,0,1761604601.3992655
125,124,125,125,124,124,124,124,0,1761604601.3992732
125,123,125,125,124,124,124,124,0,1761604601.3992786
125,123,125,125,124,124,124,124,0,1761604601.3992834
125,124,124,124,124,124,124,124,0,1761604601.3992884
125,123,124,124,124,124,124,124,0,1761604601.3992932
125,123,124,124,123,124,124,124,0,1761604601.399298
125,124,124,124,123,124,124,124,0,1761604601.3993027
125,124,124,124,123,124,124,124,0,1761604601.3993075
125,124,124,124,124,124,124,125,0,1761604601.399312
125,125,124,124,124,124,124,125,0,1761604601.3993168
125,125,125,124,123,124,125,124,0,1761604601.3993218
125,125,124,124,123,124,124,124,0,1761604601.3993266
125,125,124,124,123,124,124,124,0,1761604601.3993313
125,124,124,124,123,124,124,124,0,1761604601.3993359
125,124,124,124,123,124,124,124,0,1761604601.3993413
125,124,124,124,123,124,124,124,0,1761604601.41953
125,124,125,124,123,124,124,124,0,1761604601.419537
125,124,125,124,124,124,124,124,0,1761604601.4195423
125,124,125,124,124,124,124,124,0,1761604601.4195473
125,124,125,124,123,124,124,124,0,1761604601.4195578
125,124,125,124,123,124,124,124,0,1761604601.419563
125,124,125,124,123,124,124,124,0,1761604601.4195678
125,124,124,124,123,124,124,124,0,1761604601.4195726
125,124,124,124,123,124,124,124,0,1761604601.4195771
125,124,124,124,124,124,124,124,0,1761604601.4195817
125,125,124,124,124,124,124,124,0,1761604601.4195864
125,125,124,124,124,124,124,124,0,1761604601.4196074
125,124,124,124,124,124,124,124,0,1761604601.4196126
125,124,124,124,124,124,124,124,0,1761604601.4196181
125,124,124,123,123,124,124,124,0,1761604601.419623
125,124,124,123,123,124,124,124,0,1761604601.4196377
125,124,124,123,123,124,124,124,0,1761604601.4701269
125,124,124,124,123,124,124,125,0,1761604601.470134
126,125,124,124,123,124,124,125,0,1761604601.4701395
125,125,124,124,123,124,124,125,0,1761604601.4701443
125,125,124,124,123,124,124,124,0,1761604601.470149
125,124,124,124,123,124,124,124,0,1761604601.4701538
125,124,124,124,123,124,124,124,0,1761604601.4701583
125,124,124,124,123,124,123,124,0,1761604601.4701629
125,124,124,124,123,124,124,124,0,1761604601.4701679
125,124,124,124,124,124,124,124,0,1761604601.4701724
125,124,124,124,124,124,124,124,0,1761604601.470177
125,124,124,124,124,124,124,125,0,1761604601.4701817
125,124,125,124,124,124,124,124,0,1761604601.4701865
125,124,125,124,124,124,124,124,0,1761604601.4701917
125,124,124,124,124,124,124,124,0,1761604601.470202
125,124,124,124,123,124,124,124,0,1761604601.4702075
125,124,124,124,123,124,124,124,0,1761604601.4904144
125,124,124,124,123,124,124,125,0,1761604601.4904222
125,124,124,124,123,124,124,124,0,1761604601.4904275
125,124,124,124,123,124,124,124,0,1761604601.4904323
125,124,124,124,124,124,124,124,0,1761604601.490437
125,124,124,124,124,124,124,124,0,1761604601.490442
125,124,124,124,124,124,124,124,0,1761604601.4904466
125,124,124,124,124,124,124,124,0,1761604601.4904516
125,124,124,124,124,124,124,124,0,1761604601.490456
125,124,124,124,124,124,124,124,0,1761604601.4904606
125,124,124,124,124,124,124,124,0,1761604601.4904656
125,124,124,124,124,124,124,125,0,1761604601.490476
125,125,124,124,124,125,124,125,0,1761604601.49048
125,125,124,124,124,125,124,125,0,1761604601.4904847
126,125,124,124,124,124,124,124,0,1761604601.4904892
125,125,124,124,123,124,124,124,0,1761604601.4904945
125,125,124,124,123,124,124,124,0,1761604601.5308852
125,124,124,124,123,124,124,124,0,1761604601.5308928
125,124,124,124,123,124,124,124,0,1761604601.530898
125,124,124,124,123,124,124,124,0,1761604601.530903
125,124,124,124,123,124,124,124,0,1761604601.5309076
125,124,124,124,124,124,124,125,0,1761604601.5309124
125,124,124,124,124,124,124,125,0,1761604601.5309172
125,124,124,124,124,124,124,124,0,1761604601.5309217
125,124,124,124,124,124,124,124,0,1761604601.5309267
125,124,124,124,124,124,124,124,0,1761604601.5309372
125,124,124,124,124,124,124,124,0,1761604601.5309427
125,124,124,124,124,124,124,124,0,1761604601.5309477
125,124,125,125,124,124,124,124,0,1761604601.5309525
125,124,125,124,124,124,124,124,0,1761604601.530957
125,124,124,124,124,124,124,124,0,1761604601.5309618
125,124,124,124,123,124,124,124,0,1761604601.530967
125,124,124,124,123,124,124,124,0,1761604601.5814202
125,124,124,124,123,124,124,124,0,1761604601.5814278
125,124,124,124,123,124,124,124,0,1761604601.5814328
125,124,124,124,124,124,124,124,0,1761604601.581438
125,124,124,124,124,124,124,124,0,1761604601.581448
125,124,124,124,124,124,124,124,0,1761604601.5814538
125,124,124,124,124,124,124,124,0,1761604601.5814583
125,124,124,124,124,124,124,124,0,1761604601.581463
125,124,124,124,123,124,124,124,0,1761604601.5814679
125,124,124,124,123,124,124,124,0,1761604601.5814722
125,124,124,124,123,124,124,124,0,1761604601.581477
125,124,124,124,123,124,124,124,0,1761604601.5814815
125,125,124,124,123,124,124,124,0,1761604601.581486
125,125,124,124,124,124,124,124,0,1761604601.5814908
125,125,124,124,124,125,124,124,0,1761604601.5814953
125,124,124,124,124,124,124,124,0,1761604601.5815005
125,124,124,124,124,124,124,124,0,1761604601.6218092
125,123,124,124,124,124,123,124,0,1761604601.6218169
125,123,124,124,124,124,123,124,0,1761604601.6218276
125,123,124,124,123,124,124,124,0,1761604601.6218336
125,123,124,124,124,124,124,124,0,1761604601.6218383
125,124,124,124,124,124,124,124,0,1761604601.621843
125,124,124,124,124,124,124,124,0,1761604601.621848
125,124,124,124,124,124,124,124,0,1761604601.6218529
125,124,124,124,124,124,124,124,0,1761604601.6218576
125,124,124,124,124,124,124,124,0,1761604601.6218624
125,124,124,124,123,124,124,124,0,1761604601.6218672
125,124,124,124,123,124,124,124,0,1761604601.621872
125,124,124,124,123,124,124,125,0,1761604601.6218767
125,124,124,124,123,124,124,125,0,1761604601.6218824
125,124,124,124,124,124,124,124,0,1761604601.621887
125,124,124,124,124,125,124,124,0,1761604601.6218927
125,124,124,124,124,124,124,124,0,1761604601.6420634
125,124,124,124,124,124,124,124,0,1761604601.6420705
125,124,124,124,123,124,124,124,0,1761604601.6420763
125,124,124,124,123,124,124,124,0,1761604601.6420813
125,124,124,124,123,124,124,124,0,1761604601.6420865
125,124,124,124,123,124,124,124,0,1761604601.6420915
125,124,125,124,123,124,124,124,0,1761604601.6420963
125,125,125,124,123,124,124,125,0,1761604601.6421013
125,124,125,124,123,124,124,124,0,1761604601.642106
125,124,125,124,123,124,124,124,0,1761604601.642111
125,124,124,124,124,124,124,124,0,1761604601.6421158
125,124,124,124,124,124,124,124,0,1761604601.6421206
125,123,124,124,124,124,124,124,0,1761604601.6421256
125,124,124,124,124,124,124,124,0,1761604601.6421304
125,124,124,124,124,125,124,125,0,1761604601.6421354
125,125,124,124,123,125,124,125,0,1761604601.6421409
125,124,124,124,123,124,124,124,0,1761604601.6926594
125,125,124,124,124,124,124,124,0,1761604601.6926682
125,125,124,124,124,124,124,124,0,1761604601.6926737
125,124,124,124,124,124,124,124,0,1761604601.692679
125,124,124,124,124,124,124,124,0,1761604601.6926835
125,124,124,124,124,124,124,124,0,1761604601.6926887
125,124,124,124,124,124,124,124,0,1761604601.6926932
125,124,124,124,124,125,124,124,0,1761604601.6926978
125,124,124,124,124,124,124,124,0,1761604601.6927025
125,124,124,124,124,124,124,124,0,1761604601.692708
125,124,124,124,123,124,124,124,0,1761604601.6927128
125,124,124,124,123,124,124,124,0,1761604601.6927176
125,124,124,124,123,123,124,124,0,1761604601.692722
125,124,124,124,123,124,124,124,0,1761604601.6927269
125,124,124,124,123,124,124,124,0,1761604601.6927314
125,124,124,124,124,124,124,124,0,1761604601.6927493
125,125,125,124,124,124,124,124,0,1761604601.7129195
126,125,124,124,124,124,124,124,0,1761604601.7129269
126,125,124,124,124,124,124,124,0,1761604601.7129323
125,125,124,124,124,124,124,124,0,1761604601.712937
125,125,124,124,124,124,124,124,0,1761604601.712955
125,125,124,124,124,124,124,124,0,1761604601.7129602
125,124,124,124,124,124,124,124,0,1761604601.7129655
125,124,124,124,124,124,124,124,0,1761604601.7129705
125,124,124,124,124,124,124,124,0,1761604601.712975
125,124,124,124,124,124,124,124,0,1761604601.71298
125,124,124,124,124,124,124,124,0,1761604601.7129848
125,124,124,124,124,124,124,125,0,1761604601.7129898
125,124,124,124,124,124,124,124,0,1761604601.7129946
125,124,124,124,123,124,124,124,0,1761604601.7129996
126,124,124,124,124,124,124,124,0,1761604601.7130044
126,124,124,124,124,124,124,124,0,1761604601.7130098
125,124,124,124,124,124,124,124,0,1761604601.7533934
125,124,124,124,124,124,124,124,0,1761604601.7534013
125,124,124,124,124,124,124,124,0,1761604601.763508
125,124,124,124,124,124,124,124,0,1761604601.763515
125,124,124,124,124,124,124,124,0,1761604601.7635205
125,124,124,124,124,124,124,124,0,1761604601.7635257
125,124,124,124,124,124,124,124,0,1761604601.7635305
125,124,124,124,124,124,124,124,0,1761604601.763535
125,124,124,124,124,125,124,124,0,1761604601.7635398
125,124,124,124,124,124,124,124,0,1761604601.7635446
125,124,124,124,124,124,124,125,0,1761604601.763549
125,124,124,124,123,124,124,125,0,1761604601.763554
125,124,124,124,123,124,124,124,0,1761604601.7635586
125,124,124,124,123,124,124,124,0,1761604601.7635632
125,125,124,124,123,124,124,124,0,1761604601.763568
125,124,124,124,124,124,124,124,0,1761604601.7635732
125,124,124,124,124,124,124,124,0,1761604601.783771
125,124,124,124,124,125,124,124,0,1761604601.7837782
125,124,124,124,124,124,124,124,0,1761604601.7837834
125,124,124,124,124,124,124,124,0,1761604601.7837884
125,124,124,124,124,124,124,124,0,1761604601.7837934
125,124,124,124,124,124,124,124,0,1761604601.7837982
126,124,124,124,123,124,124,124,0,1761604601.7838032
125,124,124,124,123,124,124,124,0,1761604601.7838078
125,124,124,124,123,124,124,124,0,1761604601.7838123
125,124,124,124,123,124,124,125,0,1761604601.783817
125,124,125,124,123,124,124,125,0,1761604601.7838216
125,124,124,125,124,124,124,124,0,1761604601.7838264
125,125,124,124,124,124,124,124,0,1761604601.7838302
125,124,124,124,124,124,124,124,0,1761604601.783835
125,124,124,124,124,124,124,124,0,1761604601.7838395
125,124,124,124,124,124,124,124,0,1761604601.7838457
125,124,124,124,124,124,124,124,0,1761604601.8242247
125,124,125,124,124,124,124,124,0,1761604601.8242319
125,125,125,124,124,124,124,124,0,1761604601.8242373
125,124,124,124,124,124,124,124,0,1761604601.8242424
125,124,124,124,124,124,124,124,0,1761604601.8242474
125,124,124,124,124,124,124,124,0,1761604601.824252
125,124,124,124,124,124,124,124,0,1761604601.8242567
125,124,124,124,124,124,124,124,0,1761604601.8242683
125,124,124,124,124,124,124,124,0,1761604601.8242736
125,124,124,124,124,124,124,124,0,1761604601.8242786
125,124,124,124,124,124,124,124,0,1761604601.8242831
125,123,124,124,124,124,124,124,0,1761604601.8242877
125,124,124,124,124,124,124,124,0,1761604601.8242924
125,124,124,124,123,123,123,124,0,1761604601.824297
125,124,124,124,123,124,123,124,0,1761604601.8243017
125,124,124,124,123,124,123,124,0,1761604601.824307
125,124,124,124,123,124,124,124,0,1761604601.8747644
125,124,124,124,123,124,124,124,0,1761604601.874781
125,124,124,124,124,124,124,124,0,1761604601.8747854
125,125,124,124,124,124,124,124,0,1761604601.874804
125,124,124,124,124,124,124,124,0,1761604601.8748083
125,124,124,124,124,124,124,124,0,1761604601.8748157
125,124,124,124,124,124,124,124,0,1761604601.8748207
125,124,124,124,124,124,123,124,0,1761604601.8748252
125,124,124,124,124,124,123,124,0,1761604601.8748434
125,125,124,124,124,124,124,124,0,1761604601.874849
125,125,124,124,124,124,124,124,0,1761604601.874853
125,125,124,124,124,124,124,124,0,1761604601.8748565
125,124,124,124,124,124,124,124,0,1761604601.8748612
125,124,124,124,124,124,124,124,0,1761604601.8748662
125,124,124,124,124,124,124,124,0,1761604601.8748698
125,124,124,124,124,124,124,124,0,1761604601.8748748
125,124,124,124,124,124,124,124,0,1761604601.9152489
125,124,124,124,124,124,124,124,0,1761604601.915256
125,124,124,124,124,124,124,124,0,1761604601.9152615
125,124,124,124,124,124,124,124,0,1761604601.9152668
125,124,124,124,124,124,124,124,0,1761604601.9152718
125,124,124,124,124,124,124,124,0,1761604601.9152765
125,124,124,124,124,124,124,124,0,1761604601.915281
125,124,124,124,124,124,124,124,0,1761604601.9152858
125,124,124,124,124,124,124,124,0,1761604601.9152904
125,124,125,124,124,124,124,124,0,1761604601.9152951
125,124,125,124,124,124,124,125,0,1761604601.9153001
125,124,125,125,124,124,124,125,0,1761604601.915305
125,124,125,124,124,124,124,125,0,1761604601.9153218
125,124,124,124,124,124,124,124,0,1761604601.915327
125,124,124,124,124,124,124,124,0,1761604601.915331
125,124,124,124,124,124,124,124,0,1761604601.9153492
125,124,124,124,123,124,124,124,0,1761604601.935524
125,124,124,124,123,124,124,124,0,1761604601.9355319
125,124,124,124,123,124,124,124,0,1761604601.9355373
125,124,124,124,124,124,124,124,0,1761604601.9456496
126,124,124,124,124,125,124,124,0,1761604601.9456568
126,125,124,124,124,124,124,124,0,1761604601.9456625
125,124,124,124,124,124,124,124,0,1761604601.945667
125,124,124,124,124,124,124,124,0,1761604601.945672
125,124,124,124,123,124,124,124,0,1761604601.9456766
125,124,124,124,123,124,124,124,0,1761604601.945681
125,124,124,124,124,124,124,124,0,1761604601.9456904
125,124,124,124,124,124,124,124,0,1761604601.9456954
125,124,124,124,124,124,124,124,0,1761604601.9457004
125,124,124,124,124,124,124,124,0,1761604601.945705
125,124,124,124,124,124,124,124,0,1761604601.9457095
125,124,124,124,124,124,124,124,0,1761604601.9457147
125,124,124,124,124,124,124,124,0,1761604601.9861054
125,124,124,123,124,124,124,124,0,1761604601.9861126
125,124,124,124,124,124,124,124,0,1761604601.9861176
125,124,124,124,124,124,124,124,0,1761604601.9861228
125,124,124,124,123,124,124,124,0,1761604601.9861276
126,124,124,124,124,125,124,124,0,1761604601.9861326
125,124,124,124,124,125,124,124,0,1761604601.9861376
125,124,124,124,124,124,124,124,0,1761604601.9861424
125,124,124,124,124,124,124,124,0,1761604601.9861474
125,124,124,124,124,124,124,124,0,1761604601.9861522
125,124,124,124,124,124,123,124,0,1761604601.986157
125,124,124,124,124,124,123,124,0,1761604601.9861617
125,124,124,124,124,124,124,124,0,1761604601.9861665
125,124,124,124,124,124,124,124,0,1761604601.9861715
125,124,124,124,124,124,124,124,0,1761604601.9861763
125,124,124,124,124,124,124,124,0,1761604601.986182
125,124,124,124,124,124,124,124,0,1761604602.0265799
125,125,124,124,124,124,124,124,0,1761604602.0265915
125,124,124,124,124,124,124,124,0,1761604602.026609
125,124,124,124,124,124,124,124,0,1761604602.0266194
125,124,124,124,124,124,124,124,0,1761604602.0266254
125,125,124,124,124,124,124,124,0,1761604602.0266304
125,125,125,124,124,124,124,124,0,1761604602.0266352
125,125,124,124,124,124,124,124,0,1761604602.02665
125,125,124,124,124,124,124,124,0,1761604602.0266547
125,125,124,124,124,124,124,124,0,1761604602.0266593
125,124,124,124,124,124,124,124,0,1761604602.026664
125,124,124,124,124,124,124,124,0,1761604602.0266688
125,124,124,124,124,124,124,124,0,1761604602.0266733
125,124,124,124,124,124,124,124,0,1761604602.0266783
125,124,124,124,124,124,124,124,0,1761604602.0266926
125,124,124,124,123,124,124,125,0,1761604602.0266984
125,124,124,124,123,124,124,125,0,1761604602.077163
125,124,124,123,123,124,124,125,0,1761604602.0771756
125,124,125,123,123,124,124,125,0,1761604602.077181
125,124,124,124,123,124,124,125,0,1761604602.077186
125,124,124,124,124,124,124,125,0,1761604602.0771909
125,124,124,124,124,124,124,125,0,1761604602.0771954
125,124,124,124,124,124,124,125,0,1761604602.0772004
125,124,124,124,124,124,124,124,0,1761604602.077205
125,124,124,124,124,124,124,124,0,1761604602.0772097
125,124,124,124,123,124,124,124,0,1761604602.0772142
125,124,124,124,123,124,124,124,0,1761604602.0772188
125,124,124,124,124,124,124,124,0,1761604602.0772238
125,124,124,124,124,124,124,124,0,1761604602.0772288
125,124,124,124,124,124,124,124,0,1761604602.0772333
125,124,124,124,124,125,124,125,0,1761604602.0772402
125,125,124,124,124,124,124,125,0,1761604602.077246
125,125,124,124,124,124,124,125,0,1761604602.117625
125,124,124,124,124,124,124,124,0,1761604602.1176326
125,124,124,124,123,124,124,124,0,1761604602.1176376
125,124,124,124,123,124,124,124,0,1761604602.1176426
125,124,124,124,123,124,124,124,0,1761604602.1176476
125,124,124,124,124,124,124,124,0,1761604602.1176524
125,125,124,124,124,125,124,124,0,1761604602.1176574
125,125,124,124,124,125,124,124,0,1761604602.1176622
125,125,125,124,124,125,124,124,0,1761604602.117667
125,125,124,124,124,125,124,124,0,1761604602.117672
125,124,124,124,124,124,124,124,0,1761604602.1176767
126,124,124,124,124,124,124,124,0,1761604602.117682
125,124,124,124,123,124,124,124,0,1761604602.1176865
125,124,124,124,123,124,124,124,0,1761604602.1176913
125,125,124,124,123,125,124,124,0,1761604602.1176963
125,125,124,124,123,124,124,125,0,1761604602.1177015
125,125,124,124,123,124,124,124,0,1761604602.1378953
125,125,124,124,123,124,124,124,0,1761604602.1379023
125,125,124,124,123,124,124,124,0,1761604602.1379077
125,124,124,124,123,124,124,124,0,1761604602.1379128
125,124,124,124,123,124,124,124,0,1761604602.1379175
125,124,124,124,123,124,124,124,0,1761604602.1379235
125,124,125,124,123,124,124,124,0,1761604602.148038
125,124,125,124,123,124,124,124,0,1761604602.1480498
125,124,125,124,124,124,124,124,0,1761604602.1480558
125,124,125,124,124,124,124,124,0,1761604602.1480606
125,124,124,124,124,124,123,124,0,1761604602.1480656
125,124,124,124,124,124,123,123,0,1761604602.14807
125,124,124,124,124,124,123,123,0,1761604602.148075
125,124,124,124,124,124,123,124,0,1761604602.1480796
125,124,124,124,124,124,124,124,0,1761604602.1480842
125,124,124,124,124,124,124,124,0,1761604602.1480894
125,124,124,124,124,124,124,124,0,1761604602.188481
125,124,124,124,124,124,124,124,0,1761604602.1884882
125,124,124,124,124,124,124,124,0,1761604602.1884933
125,124,124,124,124,124,124,124,0,1761604602.188504
125,124,124,124,124,124,124,124,0,1761604602.1885097
125,124,124,124,124,124,124,124,0,1761604602.1885145
125,124,124,124,124,124,124,124,0,1761604602.1885192
125,124,124,124,123,124,124,124,0,1761604602.1885238
125,124,124,125,123,124,124,125,0,1761604602.1885283
125,125,124,125,123,124,124,124,0,1761604602.188533
125,124,124,125,123,124,124,124,0,1761604602.1885376
125,124,124,124,123,124,124,124,0,1761604602.1885421
125,124,124,124,123,124,124,124,0,1761604602.188547
125,124,124,124,123,124,124,124,0,1761604602.1885514
125,124,124,124,123,124,124,124,0,1761604602.188556
125,125,124,124,123,124,124,124,0,1761604602.1885612
125,125,124,124,124,124,124,124,0,1761604602.2087598
125,125,124,124,124,124,124,124,0,1761604602.2087667
125,125,124,124,124,124,124,124,0,1761604602.2087722
125,124,124,124,124,124,124,124,0,1761604602.208777
125,124,124,124,124,124,124,124,0,1761604602.2087815
125,124,124,124,124,124,124,124,0,1761604602.2087867
125,123,124,124,123,124,124,124,0,1761604602.2087913
125,124,124,124,123,124,124,124,0,1761604602.2087958
125,124,124,124,123,124,124,125,0,1761604602.2088008
125,124,124,124,123,124,124,125,0,1761604602.2088053
125,125,124,124,123,124,124,124,0,1761604602.20881
125,125,124,124,123,124,124,124,0,1761604602.2088149
125,125,124,124,123,124,124,124,0,1761604602.2088194
125,124,124,124,123,124,124,124,0,1761604602.2088363
125,124,124,124,123,124,124,124,0,1761604602.2088418
125,124,124,124,123,124,124,124,0,1761604602.208846
125,124,124,124,123,124,124,124,0,1761604602.2492123
125,124,124,124,124,125,124,124,0,1761604602.2492204
125,124,124,124,124,124,124,124,0,1761604602.2492254
125,124,124,124,123,124,124,124,0,1761604602.2492309
125,124,124,124,123,124,124,124,0,1761604602.2492356
125,124,124,124,123,124,124,124,0,1761604602.2492406
125,124,124,124,123,124,123,124,0,1761604602.2492454
125,124,124,124,124,124,123,124,0,1761604602.2492511
125,124,124,124,124,124,123,124,0,1761604602.249256
125,124,124,124,124,124,123,124,0,1761604602.2593672
125,124,124,124,124,124,124,124,0,1761604602.2593746
125,124,124,124,124,124,124,125,0,1761604602.2593794
125,124,124,124,124,124,124,124,0,1761604602.2593844
125,125,125,124,124,124,124,124,0,1761604602.2593892
125,124,125,124,123,124,124,124,0,1761604602.259394
125,124,124,124,124,124,124,124,0,1761604602.2593992
125,124,125,124,124,124,124,124,0,1761604602.2796092
125,124,124,124,124,124,124,125,0,1761604602.279617
125,124,124,124,124,124,124,124,0,1761604602.2796223
125,124,124,124,124,124,124,124,0,1761604602.2796276
125,124,124,124,124,124,124,124,0,1761604602.2796328
125,124,124,124,124,124,124,124,0,1761604602.2796378
125,124,124,124,124,124,124,124,0,1761604602.2796426
125,124,124,124,124,124,124,124,0,1761604602.2796476
125,124,124,124,124,124,124,124,0,1761604602.2796524
125,124,124,124,124,124,124,124,0,1761604602.2796571
125,124,124,124,124,124,124,124,0,1761604602.2796621
125,124,124,124,124,124,124,124,0,1761604602.2796671
125,124,124,124,124,124,124,124,0,1761604602.279672
125,124,124,124,124,124,124,124,0,1761604602.2796767
125,124,124,124,124,124,124,124,0,1761604602.2796824
125,124,124,124,123,124,124,124,0,1761604602.279706
125,124,124,124,123,124,124,124,0,1761604602.3200932
125,124,124,124,123,124,124,124,0,1761604602.3201005
125,124,125,125,124,124,124,125,0,1761604602.3201058
125,124,125,124,124,124,124,124,0,1761604602.3201199
125,124,124,124,124,125,124,124,0,1761604602.320125
125,125,124,124,124,124,124,124,0,1761604602.32013
125,125,124,124,124,124,124,124,0,1761604602.3201349
125,125,124,123,123,124,124,124,0,1761604602.3201394
125,125,124,123,123,124,124,124,0,1761604602.3201442
125,125,124,123,123,124,124,124,0,1761604602.320149
125,124,124,124,124,124,124,124,0,1761604602.3201537
126,124,124,124,124,124,124,124,0,1761604602.3201582
125,124,125,124,124,125,124,124,0,1761604602.3201628
125,124,124,124,124,124,124,124,0,1761604602.3201678
125,124,124,124,124,124,124,124,0,1761604602.3201723
125,124,124,124,124,124,124,124,0,1761604602.320178
125,124,124,124,124,124,124,124,0,1761604602.3403609
125,123,124,124,124,124,124,124,0,1761604602.3504753
125,123,124,124,124,124,124,124,0,1761604602.3504827
125,124,124,124,124,124,124,124,0,1761604602.3504887
125,124,124,124,124,124,124,124,0,1761604602.3504934
125,124,124,124,123,124,124,124,0,1761604602.350498
125,124,124,124,123,124,124,124,0,1761604602.3505027
125,124,124,124,123,124,124,124,0,1761604602.3505075
125,124,124,124,124,124,124,124,0,1761604602.350512
125,124,124,124,124,124,124,124,0,1761604602.3505168
125,124,124,124,124,124,124,124,0,1761604602.3505213
125,124,124,125,124,124,124,124,0,1761604602.3505259
125,124,124,125,124,124,124,124,0,1761604602.3505306
125,124,124,124,123,124,124,124,0,1761604602.3505354
125,125,124,124,123,124,124,124,0,1761604602.35054
125,125,124,124,123,124,124,124,0,1761604602.3505452
125,125,124,123,123,124,124,124,0,1761604602.4111147
126,125,124,123,123,124,124,124,0,1761604602.411122
126,124,125,124,123,124,124,124,0,1761604602.4111273
125,124,125,124,123,124,124,125,0,1761604602.4111323
125,124,125,124,123,124,124,125,0,1761604602.411137
125,124,125,124,123,124,124,125,0,1761604602.411142
125,124,124,124,123,124,124,124,0,1761604602.4111466
125,125,124,124,123,124,124,124,0,1761604602.4111516
125,124,124,124,123,124,124,124,0,1761604602.4111562
125,124,124,124,123,124,124,124,0,1761604602.4111614
125,124,124,124,123,124,124,124,0,1761604602.411166
125,124,124,124,123,124,124,124,0,1761604602.4111707
125,124,124,125,124,124,124,124,0,1761604602.4111757
125,124,124,125,124,124,124,124,0,1761604602.4111803
125,124,124,125,124,124,124,124,0,1761604602.4111853
125,124,124,124,124,124,124,124,0,1761604602.4111907
125,124,124,124,124,124,124,124,0,1761604602.4313858
125,124,124,124,124,124,124,124,0,1761604602.431393
125,124,125,124,124,124,124,124,0,1761604602.4313986
125,124,125,124,124,124,124,124,0,1761604602.4314039
125,124,125,124,124,124,124,124,0,1761604602.431409
125,124,124,124,124,124,124,124,0,1761604602.4314137
125,124,124,124,123,124,124,124,0,1761604602.4314237
125,124,124,124,123,124,124,124,0,1761604602.431431
125,124,124,124,123,124,124,124,0,1761604602.4314363
125,124,124,124,123,124,124,124,0,1761604602.431441
125,124,124,124,123,124,124,124,0,1761604602.431446
125,124,124,124,124,124,124,124,0,1761604602.4314506
125,123,124,124,124,124,124,124,0,1761604602.4314554
125,124,125,124,124,124,124,124,0,1761604602.4314601
125,124,125,125,124,124,124,124,0,1761604602.4314647
125,124,125,124,124,124,124,125,0,1761604602.4314702
125,124,124,124,124,124,124,124,0,1761604602.481927
125,124,124,124,124,124,124,124,0,1761604602.4819348
125,124,124,124,123,124,124,124,0,1761604602.48194
125,124,124,124,123,124,124,124,0,1761604602.4819448
125,124,124,124,123,124,124,124,0,1761604602.4819498
126,124,124,124,123,124,124,124,0,1761604602.4819543
126,124,124,124,123,124,124,124,0,1761604602.4819589
126,125,124,124,123,125,124,124,0,1761604602.4819636
125,124,124,124,123,124,124,124,0,1761604602.4819682
125,124,124,124,123,124,124,124,0,1761604602.4819727
125,125,124,124,123,124,124,124,0,1761604602.4819777
125,125,124,124,123,124,124,124,0,1761604602.4819822
125,124,124,124,123,124,124,124,0,1761604602.4819868
125,125,125,124,123,124,124,125,0,1761604602.4819915
126,125,125,124,124,124,124,125,0,1761604602.481996
125,124,124,124,124,124,124,124,0,1761604602.4820008
125,124,124,124,124,124,124,124,0,1761604602.502197
125,124,124,124,124,124,124,124,0,1761604602.502204
125,124,124,124,124,124,124,124,0,1761604602.502209
125,124,124,124,123,124,124,124,0,1761604602.502214
125,124,124,124,123,124,124,124,0,1761604602.5022187
125,124,124,124,123,124,124,124,0,1761604602.5022233
125,124,124,124,123,124,124,124,0,1761604602.502228
125,124,124,124,123,124,124,124,0,1761604602.5022328
125,125,124,124,124,124,124,124,0,1761604602.5022376
125,125,124,124,123,124,124,124,0,1761604602.502242
125,125,124,124,123,124,124,124,0,1761604602.5022466
125,125,124,124,123,124,124,124,0,1761604602.5022511
125,124,124,124,123,124,124,124,0,1761604602.502256
125,124,124,124,123,124,124,124,0,1761604602.5022607
125,124,124,124,124,124,124,124,0,1761604602.502265
125,124,125,124,124,124,124,124,0,1761604602.5022705
125,124,125,124,124,124,124,124,0,1761604602.5426311
125,124,124,124,124,124,124,125,0,1761604602.5426383
125,124,124,124,124,124,124,125,0,1761604602.5426435
125,124,124,124,123,124,124,125,0,1761604602.5426486
125,124,124,124,123,124,124,125,0,1761604602.5426533
125,124,124,124,123,124,124,125,0,1761604602.5426583
125,124,124,124,123,124,124,125,0,1761604602.542663
125,124,124,124,124,124,124,125,0,1761604602.542668
125,124,124,124,124,124,124,125,0,1761604602.5426726
125,124,124,124,124,125,124,125,0,1761604602.5426774
125,124,124,124,124,124,124,125,0,1761604602.5426886
125,124,124,124,124,124,124,125,0,1761604602.542694
125,124,124,124,124,124,124,124,0,1761604602.542699
125,124,124,124,124,124,124,124,0,1761604602.5427036
125,124,124,124,124,124,124,124,0,1761604602.5427084
125,124,124,124,124,124,124,124,0,1761604602.5427136
125,124,124,124,124,124,124,124,0,1761604602.5730095
125,124,124,124,124,124,124,124,0,1761604602.5730186
125,124,124,124,124,124,124,124,0,1761604602.5730243
125,124,124,124,123,124,124,124,0,1761604602.5730293
125,124,124,124,123,124,124,124,0,1761604602.5730343
125,124,124,124,124,124,124,124,0,1761604602.573039
125,124,124,124,124,124,124,124,0,1761604602.573044
125,124,124,125,124,124,124,124,0,1761604602.5730488
125,124,124,125,124,124,124,124,0,1761604602.5730534
125,124,124,125,124,124,124,125,0,1761604602.5730584
125,125,124,124,124,124,124,124,0,1761604602.5730631
125,125,124,124,124,124,124,124,0,1761604602.5730681
125,124,124,124,123,124,124,124,0,1761604602.573073
125,124,124,124,123,124,124,124,0,1761604602.5730777
125,124,124,124,123,124,124,124,0,1761604602.5730824
125,124,124,124,123,124,124,124,0,1761604602.573098
125,124,124,124,124,124,124,124,0,1761604602.613446
125,124,124,124,124,124,124,124,0,1761604602.6134548
125,124,124,124,124,124,124,125,0,1761604602.6134605
125,124,125,124,124,124,124,124,0,1761604602.6134775
125,125,125,124,123,124,124,124,0,1761604602.613483
125,125,125,124,123,124,124,124,0,1761604602.613488
125,125,125,124,123,124,124,124,0,1761604602.6134927
125,125,125,124,123,124,124,124,0,1761604602.6134975
125,125,125,124,123,124,124,124,0,1761604602.6135023
125,124,124,124,124,124,124,124,0,1761604602.613507
125,124,124,124,124,124,124,124,0,1761604602.6135116
125,124,124,124,124,124,124,124,0,1761604602.6135166
125,124,124,124,124,124,124,124,0,1761604602.613521
125,124,124,124,123,124,124,124,0,1761604602.613526
125,124,124,124,123,124,124,124,0,1761604602.6135306
125,124,124,124,124,124,124,124,0,1761604602.6135356
125,124,124,124,124,124,124,124,0,1761604602.6337125
125,125,124,124,124,124,124,124,0,1761604602.6337202
125,124,124,124,124,124,124,124,0,1761604602.633726
125,124,124,124,124,124,124,124,0,1761604602.6337316
125,124,124,124,124,124,124,124,0,1761604602.6337366
125,124,124,124,124,124,123,124,0,1761604602.6337419
125,124,124,124,123,124,123,124,0,1761604602.6337469
125,124,124,124,123,124,123,124,0,1761604602.6337519
125,124,124,124,123,124,123,124,0,1761604602.6337564
125,124,124,124,124,124,124,124,0,1761604602.6337612
125,123,124,124,124,124,124,124,0,1761604602.6337662
125,124,124,125,124,124,124,124,0,1761604602.6337707
125,124,124,124,124,124,124,124,0,1761604602.6337805
125,124,124,124,123,124,124,124,0,1761604602.633786
125,125,124,124,123,124,124,124,0,1761604602.6337898
125,125,124,124,123,124,124,124,0,1761604602.6338067
125,125,124,124,124,124,124,124,0,1761604602.6842926
125,124,124,124,124,124,124,124,0,1761604602.6843014
126,124,124,124,124,125,124,124,0,1761604602.6843066
125,124,124,124,124,124,124,124,0,1761604602.6843116
125,124,124,124,124,124,124,124,0,1761604602.6843164
125,124,124,124,124,124,124,124,0,1761604602.6843212
125,125,124,124,124,124,124,124,0,1761604602.6843262
125,125,124,124,123,124,124,124,0,1761604602.684331
125,125,124,124,123,124,124,124,0,1761604602.6843357
125,124,124,124,124,124,124,124,0,1761604602.6843402
125,124,124,124,124,124,124,125,0,1761604602.684345
125,124,124,124,124,124,124,125,0,1761604602.6843498
125,124,124,124,124,124,124,125,0,1761604602.6843543
125,124,124,124,124,124,124,124,0,1761604602.6843588
125,124,124,124,124,124,124,124,0,1761604602.6843638
125,124,125,124,123,124,124,124,0,1761604602.6843696
125,124,125,124,123,124,124,124,0,1761604602.7045803
125,124,125,124,124,124,124,124,0,1761604602.7045934
125,124,124,124,124,124,124,124,0,1761604602.7046099
125,124,124,124,124,124,124,124,0,1761604602.704615
125,124,124,124,123,124,124,124,0,1761604602.7046201
125,124,124,124,123,124,124,124,0,1761604602.704625
125,124,124,124,123,124,124,124,0,1761604602.7046297
125,125,124,124,124,124,124,124,0,1761604602.7046497
125,124,124,124,124,124,124,124,0,1761604602.7046556
125,123,124,124,124,124,124,124,0,1761604602.7046602
125,123,124,125,124,124,124,124,0,1761604602.7046652
125,124,124,125,124,124,124,124,0,1761604602.7046697
125,124,124,125,124,124,124,124,0,1761604602.7046742
125,125,124,124,124,124,124,124,0,1761604602.704679
125,125,124,124,123,124,124,124,0,1761604602.7046835
125,125,124,124,123,124,124,124,0,1761604602.7046885
125,125,124,124,123,124,124,124,0,1761604602.7450533
125,125,124,124,123,124,124,124,0,1761604602.7450612
125,125,124,124,123,124,124,124,0,1761604602.7450664
125,124,124,124,124,125,124,124,0,1761604602.7450716
125,124,125,124,124,125,124,124,0,1761604602.7450767
125,124,125,124,124,125,124,124,0,1761604602.7450817
125,124,125,124,124,124,124,124,0,1761604602.7450864
125,124,124,124,124,124,124,124,0,1761604602.7450914
125,124,124,123,124,124,124,124,0,1761604602.7450962
125,124,124,123,124,124,124,124,0,1761604602.7451007
125,124,124,123,123,124,124,125,0,1761604602.7451057
125,124,124,123,124,124,124,124,0,1761604602.7451105
125,124,124,124,124,124,124,124,0,1761604602.7451153
125,124,124,124,124,124,124,124,0,1761604602.7451203
125,124,124,124,124,124,124,124,0,1761604602.745124
125,124,124,124,124,124,124,124,0,1761604602.7451317
125,124,124,124,124,124,124,124,0,1761604602.765313
125,124,124,124,124,124,124,124,0,1761604602.7754283
125,125,124,124,124,124,124,124,0,1761604602.7754357
125,125,124,124,124,124,124,124,0,1761604602.775441
125,125,124,124,124,124,124,124,0,1761604602.775446
125,125,124,124,124,124,124,124,0,1761604602.775451
125,125,124,124,124,124,124,124,0,1761604602.7754555
125,124,124,124,123,124,124,124,0,1761604602.77546
125,124,124,124,123,124,124,124,0,1761604602.7754648
125,124,124,124,123,124,124,124,0,1761604602.7754693
125,124,124,124,123,124,124,124,0,1761604602.7754736
126,124,124,124,123,124,124,124,0,1761604602.7754788
126,125,124,124,123,124,124,124,0,1761604602.775493
126,125,124,124,124,125,124,124,0,1761604602.7754982
126,125,124,124,124,125,124,124,0,1761604602.775503
125,125,124,124,124,124,124,124,0,1761604602.7755089
125,125,124,124,124,124,124,124,0,1761604602.8158672
125,125,124,124,124,124,124,124,0,1761604602.815874
125,125,124,124,124,124,124,124,0,1761604602.815879
125,125,125,124,124,124,124,124,0,1761604602.815884
125,124,125,124,124,124,124,124,0,1761604602.815889
125,124,124,125,124,124,124,124,0,1761604602.8158934
125,124,124,125,123,124,124,124,0,1761604602.8158982
125,124,124,124,123,124,124,124,0,1761604602.8159027
125,124,124,124,123,124,123,124,0,1761604602.8159072
125,124,124,124,123,124,123,124,0,1761604602.815912
125,124,124,124,123,124,124,124,0,1761604602.8159165
125,124,124,124,123,124,124,124,0,1761604602.8159213
125,124,125,124,123,124,124,125,0,1761604602.8159392
125,124,124,124,124,124,124,124,0,1761604602.8159442
125,124,124,124,124,124,124,124,0,1761604602.8159478
125,125,124,124,124,124,124,124,0,1761604602.8159678
125,125,124,124,124,124,124,124,0,1761604602.856339
125,125,124,124,124,124,124,124,0,1761604602.856367
125,125,124,124,124,124,124,124,0,1761604602.8563905
125,124,124,124,123,124,124,124,0,1761604602.8564124
125,124,124,124,123,124,124,124,0,1761604602.8564336
125,124,125,124,123,124,124,124,0,1761604602.856456
125,124,124,124,123,124,124,125,0,1761604602.8564675
125,124,124,124,124,124,124,124,0,1761604602.8564777
125,124,124,124,124,124,124,124,0,1761604602.8564878
125,124,124,124,124,124,124,124,0,1761604602.8565087
125,124,124,124,124,124,124,124,0,1761604602.8565314
125,124,124,124,123,124,124,124,0,1761604602.8666532
125,124,124,124,123,124,124,124,0,1761604602.8666606
125,124,124,124,123,124,124,124,0,1761604602.866666
125,124,124,124,123,124,124,124,0,1761604602.866671
125,124,124,124,123,124,124,124,0,1761604602.8666766
125,124,124,124,123,124,124,124,0,1761604602.886881
125,125,124,124,124,124,124,124,0,1761604602.886889
125,125,124,124,124,124,124,124,0,1761604602.8868964
125,125,124,124,123,124,124,124,0,1761604602.8869019
125,124,124,124,123,124,124,124,0,1761604602.8869064
125,124,124,124,123,124,124,124,0,1761604602.8869112
125,124,124,124,123,124,124,125,0,1761604602.8869162
125,124,124,124,124,124,124,125,0,1761604602.8869207
126,124,124,124,124,124,124,125,0,1761604602.8869252
125,125,125,124,123,124,124,125,0,1761604602.8869302
125,125,124,124,123,124,124,124,0,1761604602.8869348
125,125,124,124,123,124,124,124,0,1761604602.8869398
125,125,124,124,123,124,124,124,0,1761604602.8869443
125,124,124,124,123,124,124,124,0,1761604602.886949
125,124,124,124,124,124,124,124,0,1761604602.8869534
125,124,124,124,124,124,124,124,0,1761604602.8869715
126,124,124,124,124,124,124,124,0,1761604602.9273312
126,124,124,124,124,124,124,124,0,1761604602.9273386
126,125,124,124,124,124,124,124,0,1761604602.9273436
125,124,124,124,124,124,124,124,0,1761604602.927349
125,124,124,124,124,124,124,124,0,1761604602.9273539
125,125,124,124,124,124,124,124,0,1761604602.9273586
125,125,124,124,123,124,124,124,0,1761604602.9273634
125,124,124,124,123,124,124,124,0,1761604602.927368
125,124,125,124,123,124,124,124,0,1761604602.9273725
125,124,124,124,123,124,123,124,0,1761604602.9273772
125,124,124,124,123,124,123,124,0,1761604602.927382
125,124,124,124,123,124,123,124,0,1761604602.9273865
125,124,124,124,123,124,124,124,0,1761604602.9274023
125,124,124,124,123,124,124,124,0,1761604602.9274075
126,125,124,124,123,125,124,124,0,1761604602.9274116
126,124,124,124,124,125,124,124,0,1761604602.9274263
125,124,125,124,124,125,124,124,0,1761604602.9476235
125,125,125,124,124,125,124,124,0,1761604602.9476311
125,124,125,124,124,124,124,124,0,1761604602.9476368
125,123,124,124,124,124,124,124,0,1761604602.9476418
125,123,124,124,124,124,124,124,0,1761604602.9476466
125,123,124,124,124,124,124,123,0,1761604602.9476519
125,123,124,124,124,124,124,124,0,1761604602.9476564
125,124,124,124,124,124,124,124,0,1761604602.9476614
125,125,124,125,124,124,124,124,0,1761604602.9476662
125,125,125,125,124,124,124,124,0,1761604602.9476714
125,125,124,124,124,124,124,124,0,1761604602.9476762
125,124,124,124,124,124,124,124,0,1761604602.947681
125,123,124,124,123,124,124,124,0,1761604602.9476857
125,123,124,124,123,124,124,124,0,1761604602.9476905
125,123,124,124,123,124,124,124,0,1761604602.9476953
125,123,124,124,123,124,124,125,0,1761604602.947702
125,123,124,124,124,124,124,125,0,1761604602.9981706
125,124,124,124,123,124,124,125,0,1761604602.9981778
125,124,124,124,123,124,124,125,0,1761604602.998183
125,124,124,124,123,124,124,125,0,1761604602.998188
125,125,124,124,123,124,124,124,0,1761604602.9981925
125,125,124,124,124,124,124,124,0,1761604602.9982033
125,124,124,124,124,124,124,124,0,1761604602.9982114
125,124,124,124,124,124,124,124,0,1761604602.9982164
125,124,124,124,124,124,124,124,0,1761604602.9982214
125,125,124,124,124,124,124,124,0,1761604602.998226
125,125,124,124,123,124,124,124,0,1761604602.9982305
125,125,124,124,123,124,124,124,0,1761604602.9982352
125,125,124,124,123,124,124,124,0,1761604602.9982395
125,125,124,124,123,124,124,124,0,1761604602.9982443
125,125,124,124,123,124,124,124,0,1761604602.998249
125,124,124,124,123,124,124,124,0,1761604602.9982543
125,124,124,124,123,124,124,124,0,1761604603.0184593
125,124,124,124,123,124,124,124,0,1761604603.0184677
125,124,124,124,123,124,124,124,0,1761604603.018473
125,123,124,124,123,124,124,124,0,1761604603.0184782
125,124,124,124,123,124,123,124,0,1761604603.018483
125,124,124,124,123,124,123,124,0,1761604603.0184877
125,125,124,124,124,124,124,124,0,1761604603.0184927
125,125,124,124,124,124,124,124,0,1761604603.0184975
126,126,124,124,124,124,124,124,0,1761604603.0185022
125,126,125,124,124,124,124,124,0,1761604603.018507
125,125,125,124,124,124,124,125,0,1761604603.0185115
125,125,125,124,124,124,124,124,0,1761604603.0185165
125,124,124,124,124,124,124,124,0,1761604603.018521
125,124,124,124,124,124,124,124,0,1761604603.0185258
125,123,124,124,123,124,124,124,0,1761604603.0185306
125,123,124,124,123,124,124,124,0,1761604603.018536
125,123,124,124,123,124,124,124,0,1761604603.0589042
125,123,124,124,124,124,124,124,0,1761604603.0589318
125,124,124,124,124,124,124,124,0,1761604603.058955
125,125,124,124,124,124,124,124,0,1761604603.0589767
125,125,124,124,124,124,124,124,0,1761604603.058998
125,125,124,124,124,124,124,124,0,1761604603.059019
125,124,124,124,124,124,124,124,0,1761604603.059041
125,124,124,124,124,124,124,124,0,1761604603.0691574
125,124,124,124,124,124,124,124,0,1761604603.0691648
125,124,124,124,124,124,124,124,0,1761604603.0691702
125,125,124,124,124,124,124,124,0,1761604603.0691755
125,125,124,124,124,124,124,124,0,1761604603.0691805
125,125,124,124,123,124,124,124,0,1761604603.069185
125,124,124,124,123,124,124,124,0,1761604603.0691898
125,124,124,124,123,124,124,124,0,1761604603.0691946
125,124,124,124,123,124,124,124,0,1761604603.0691998
125,125,124,124,123,124,124,124,0,1761604603.0894012
125,124,124,124,124,124,124,124,0,1761604603.0894089
125,124,124,124,124,124,124,124,0,1761604603.089414
125,124,124,124,124,124,124,124,0,1761604603.0894186
125,123,124,124,124,125,124,124,0,1761604603.0894234
125,123,124,124,124,125,124,124,0,1761604603.0894282
125,123,124,124,123,124,124,124,0,1761604603.0894327
125,124,124,123,123,124,124,124,0,1761604603.0894375
125,124,124,124,123,124,124,124,0,1761604603.089448
125,125,124,124,123,124,124,124,0,1761604603.0894535
125,126,124,124,124,124,124,125,0,1761604603.0894582
125,126,125,124,124,124,124,125,0,1761604603.0894628
125,125,125,124,124,124,124,124,0,1761604603.089467
125,125,125,124,124,124,124,124,0,1761604603.0894718
125,125,125,124,124,124,124,124,0,1761604603.0894763
125,124,125,124,124,124,124,124,0,1761604603.0894814
125,124,124,124,124,124,124,124,0,1761604603.1298656
125,124,124,124,123,124,124,124,0,1761604603.1298728
125,124,124,124,124,124,124,124,0,1761604603.129878
125,124,124,124,124,124,124,124,0,1761604603.1298828
125,124,124,124,124,124,124,124,0,1761604603.1298878
125,124,124,124,124,124,124,124,0,1761604603.1298923
125,124,124,124,124,124,124,124,0,1761604603.129897
125,124,124,124,124,124,124,124,0,1761604603.129902
125,123,124,124,124,124,124,124,0,1761604603.1299062
125,123,124,124,124,124,124,124,0,1761604603.1299107
125,123,124,124,124,124,124,124,0,1761604603.1299155
125,124,124,124,124,124,124,124,0,1761604603.12992
125,125,125,124,123,124,124,125,0,1761604603.1299245
125,125,124,124,123,124,124,124,0,1761604603.129929
125,125,125,124,123,124,124,124,0,1761604603.1299336
125,125,124,124,123,124,124,124,0,1761604603.1299388
125,125,124,124,123,124,124,124,0,1761604603.1501474
125,124,124,124,124,124,124,124,0,1761604603.1501555
125,124,125,124,124,124,124,125,0,1761604603.1501606
125,124,124,124,124,124,124,125,0,1761604603.1501656
125,125,125,124,123,124,124,125,0,1761604603.1501703
125,124,124,124,123,124,124,125,0,1761604603.150175
125,124,124,124,123,124,124,125,0,1761604603.1501796
125,124,124,124,123,124,124,124,0,1761604603.1501842
125,124,124,124,123,124,124,124,0,1761604603.1501887
125,123,124,124,123,124,124,124,0,1761604603.1501932
125,123,124,124,123,124,124,124,0,1761604603.1501977
125,123,124,125,124,124,124,124,0,1761604603.1502023
125,124,124,125,124,124,124,124,0,1761604603.150207
125,124,124,125,124,124,124,124,0,1761604603.1502144
125,124,124,124,124,124,124,124,0,1761604603.150219
125,124,124,124,124,124,124,124,0,1761604603.1502242
125,125,124,124,123,124,124,124,0,1761604603.2007065
125,124,124,124,123,124,124,124,0,1761604603.2007139
125,125,124,124,123,124,124,124,0,1761604603.200719
125,125,124,124,123,124,124,124,0,1761604603.2007241
125,125,125,124,123,124,124,124,0,1761604603.200729
125,125,124,124,124,124,124,124,0,1761604603.2007337
125,125,124,124,124,125,124,124,0,1761604603.2007382
125,124,124,124,124,124,124,124,0,1761604603.200743
125,124,124,124,123,124,124,124,0,1761604603.2007477
125,124,124,124,123,124,124,124,0,1761604603.2007525
125,124,124,124,123,124,124,124,0,1761604603.200757
125,124,124,124,123,124,124,124,0,1761604603.2007675
125,124,124,125,123,124,124,124,0,1761604603.2007723
125,124,124,125,124,124,124,124,0,1761604603.2007875
125,124,124,125,124,124,124,124,0,1761604603.200791
125,124,124,125,124,124,124,124,0,1761604603.2008052
125,124,124,124,124,124,124,124,0,1761604603.2412052
125,124,124,124,124,124,124,124,0,1761604603.2412126
125,124,124,124,124,124,124,124,0,1761604603.2412176
125,124,124,124,124,124,124,124,0,1761604603.2412224
125,124,124,124,124,124,124,124,0,1761604603.241227
125,124,124,124,124,125,124,124,0,1761604603.2412317
125,124,125,124,124,124,124,124,0,1761604603.2412364
125,124,125,124,124,124,124,124,0,1761604603.241241
125,124,125,124,124,124,124,124,0,1761604603.2412457
125,124,125,124,124,124,124,124,0,1761604603.2412503
125,124,124,124,124,124,124,124,0,1761604603.2412548
125,124,124,124,124,124,124,124,0,1761604603.2412596
125,124,124,124,124,124,124,124,0,1761604603.241264
125,124,124,124,124,124,124,125,0,1761604603.2412686
125,124,124,124,124,124,124,125,0,1761604603.2412734
125,124,124,124,124,124,124,124,0,1761604603.2412786
125,124,124,124,124,124,124,124,0,1761604603.2715669
125,124,124,124,123,124,124,124,0,1761604603.2715743
125,124,124,124,123,124,124,124,0,1761604603.2715797
125,124,124,123,123,124,124,124,0,1761604603.2715845
125,125,124,124,123,124,124,124,0,1761604603.2715998
125,125,124,124,123,124,124,124,0,1761604603.271611
125,125,124,124,124,124,124,124,0,1761604603.2716167
126,125,124,124,124,124,124,124,0,1761604603.2716217
126,125,124,124,124,124,124,124,0,1761604603.2716265
125,124,124,125,124,124,124,124,0,1761604603.2716408
125,124,124,124,124,124,124,124,0,1761604603.2716458
125,124,124,124,124,124,124,124,0,1761604603.2716503
125,124,124,124,124,123,124,124,0,1761604603.2716548
125,124,124,124,124,124,124,124,0,1761604603.2716596
125,124,124,124,124,124,124,124,0,1761604603.2716641
125,124,124,124,124,124,124,124,0,1761604603.2716691
125,125,124,124,124,124,124,124,0,1761604603.312066
125,124,124,124,124,124,124,124,0,1761604603.312074
125,125,124,124,124,124,124,124,0,1761604603.31208
125,124,124,124,123,124,124,124,0,1761604603.312085
125,124,125,124,123,124,124,124,0,1761604603.3120897
125,124,124,124,123,124,124,124,0,1761604603.3120944
125,124,124,124,123,124,124,124,0,1761604603.312099
125,124,124,124,123,124,124,124,0,1761604603.312104
125,124,124,124,124,124,124,124,0,1761604603.3121085
125,124,124,124,124,124,124,124,0,1761604603.3121138
125,124,124,124,124,124,124,124,0,1761604603.3121183
125,124,124,124,124,124,124,124,0,1761604603.3121228
125,124,124,124,124,124,124,124,0,1761604603.312128
125,124,124,124,124,124,124,124,0,1761604603.3121326
126,124,124,124,124,124,124,124,0,1761604603.3121395
125,124,124,124,124,124,124,124,0,1761604603.3121452
125,124,124,124,124,124,124,124,0,1761604603.3323357
125,124,124,124,124,124,124,124,0,1761604603.3323429
125,124,124,124,123,124,124,124,0,1761604603.3323483
125,124,124,124,124,124,124,124,0,1761604603.3323536
125,124,124,124,123,124,124,124,0,1761604603.3323581
125,124,124,124,123,124,124,124,0,1761604603.332363
125,124,124,124,123,124,124,124,0,1761604603.3323677
125,124,124,124,124,124,124,124,0,1761604603.3323724
125,124,124,124,123,124,124,124,0,1761604603.3323772
125,124,124,124,123,124,124,124,0,1761604603.332382
125,124,124,124,124,124,124,124,0,1761604603.3323865
125,124,124,124,123,124,124,124,0,1761604603.3323913
125,124,124,124,123,124,124,124,0,1761604603.3323958
125,124,124,124,124,124,124,124,0,1761604603.3324003
125,124,124,124,124,124,124,124,0,1761604603.332405
125,124,124,124,124,124,124,124,0,1761604603.3324103
125,125,124,124,124,124,124,124,0,1761604603.382873
125,125,124,124,124,124,124,124,0,1761604603.38288
125,124,124,124,124,124,124,124,0,1761604603.3828855
125,124,124,124,124,124,124,124,0,1761604603.38289
125,124,124,124,124,124,124,124,0,1761604603.3828948
125,124,124,124,123,124,124,124,0,1761604603.3828998
125,124,124,124,124,124,124,124,0,1761604603.3829043
125,124,125,124,124,124,124,124,0,1761604603.3829088
125,124,125,124,124,125,124,125,0,1761604603.3829136
125,124,125,124,124,124,124,125,0,1761604603.3829181
125,124,124,124,124,124,124,124,0,1761604603.3829226
125,124,124,124,124,124,124,124,0,1761604603.3829274
125,124,124,124,124,124,124,124,0,1761604603.382932
125,124,124,124,124,124,124,124,0,1761604603.3829367
125,124,124,124,123,124,124,124,0,1761604603.3829415
125,124,125,124,123,124,124,124,0,1761604603.3829467
125,124,125,124,123,124,124,124,0,1761604603.403146
125,124,125,124,123,124,124,124,0,1761604603.4031527
125,124,125,124,123,124,124,125,0,1761604603.4031577
125,125,125,124,124,124,124,124,0,1761604603.4031627
125,124,125,124,124,124,124,124,0,1761604603.4031675
125,124,124,124,124,124,124,124,0,1761604603.403172
125,124,124,124,124,124,124,124,0,1761604603.403177
125,124,124,124,124,124,124,124,0,1761604603.4031816
125,124,124,124,124,124,124,124,0,1761604603.403186
125,124,124,124,124,124,124,124,0,1761604603.4031909
125,124,124,124,124,124,124,124,0,1761604603.4031956
125,124,124,124,124,124,124,124,0,1761604603.4032006
125,124,124,124,124,124,124,124,0,1761604603.4032052
125,124,124,124,124,124,124,124,0,1761604603.4032207
125,124,124,124,124,124,124,124,0,1761604603.403226
125,124,124,124,123,124,124,124,0,1761604603.4032311
125,124,124,124,123,124,124,124,0,1761604603.443636
125,124,124,124,123,124,124,124,0,1761604603.4436438
125,124,124,124,124,124,124,125,0,1761604603.4436517
125,124,124,124,124,124,124,124,0,1761604603.443657
125,124,124,124,124,124,124,124,0,1761604603.443662
125,124,124,124,124,124,124,124,0,1761604603.4436665
125,124,124,124,124,124,124,124,0,1761604603.443671
125,124,124,124,124,124,124,124,0,1761604603.4436758
125,124,124,124,124,124,124,124,0,1761604603.4436805
125,124,125,124,124,124,124,124,0,1761604603.4436853
125,124,125,124,124,124,124,124,0,1761604603.44369
125,125,125,124,124,124,124,124,0,1761604603.4436946
125,124,124,124,124,124,124,124,0,1761604603.4436994
125,125,124,124,123,124,124,124,0,1761604603.4437041
125,124,124,124,123,124,124,124,0,1761604603.4437087
125,124,124,124,123,124,124,124,0,1761604603.4437141
125,124,125,124,123,124,124,124,0,1761604603.4740167
125,124,125,124,123,124,124,125,0,1761604603.4740252
125,124,125,124,123,124,124,125,0,1761604603.4740305
125,124,125,124,123,124,124,125,0,1761604603.474036
125,124,125,124,123,124,124,125,0,1761604603.4740407
125,124,124,124,123,124,124,125,0,1761604603.4740458
125,124,124,124,123,124,124,124,0,1761604603.4740508
125,124,124,124,123,124,124,124,0,1761604603.4740558
125,124,124,124,123,124,124,124,0,1761604603.4740605
125,124,124,124,123,124,124,124,0,1761604603.4740653
125,124,124,124,124,124,124,124,0,1761604603.4740703
125,125,124,124,124,124,124,124,0,1761604603.4740748
125,125,124,124,124,124,124,124,0,1761604603.4740798
125,125,124,124,124,124,124,124,0,1761604603.4740846
125,124,124,124,124,124,124,124,0,1761604603.4740894
125,124,124,124,123,124,124,124,0,1761604603.474095
125,124,124,124,123,124,124,124,0,1761604603.5144732
125,124,124,124,123,124,124,124,0,1761604603.51448
125,124,124,124,123,124,124,124,0,1761604603.514485
125,125,125,124,124,124,124,124,0,1761604603.51449
125,125,125,124,124,124,124,124,0,1761604603.5144947
125,125,125,124,124,124,124,124,0,1761604603.5144997
125,124,125,124,124,124,124,124,0,1761604603.5145042
125,124,125,124,124,124,124,124,0,1761604603.5145087
125,124,124,124,123,124,124,124,0,1761604603.5145135
125,124,124,124,123,124,124,124,0,1761604603.5145183
125,124,124,124,124,124,124,124,0,1761604603.5145228
125,124,124,124,124,124,124,124,0,1761604603.5145276
125,124,124,124,124,124,124,124,0,1761604603.514532
125,124,125,125,124,124,124,124,0,1761604603.5145369
125,124,125,124,124,124,123,124,0,1761604603.5145416
125,124,124,124,124,124,123,124,0,1761604603.5145473
125,124,124,124,124,124,124,124,0,1761604603.5650117
125,124,124,124,123,124,124,124,0,1761604603.565019
125,124,124,124,123,124,124,124,0,1761604603.565024
126,124,124,124,124,124,124,124,0,1761604603.565029
125,125,125,124,124,124,124,124,0,1761604603.5650423
125,125,125,124,124,124,124,124,0,1761604603.5650475
125,125,125,124,124,124,124,124,0,1761604603.5650525
125,124,125,124,124,124,124,124,0,1761604603.5650568
125,124,124,124,124,124,124,124,0,1761604603.5650613
125,123,124,124,124,124,124,124,0,1761604603.565066
125,124,124,124,124,124,124,124,0,1761604603.5650704
125,124,124,124,124,124,124,124,0,1761604603.565075
125,124,124,124,124,124,124,124,0,1761604603.5650792
125,124,125,125,124,124,124,124,0,1761604603.565084
125,124,124,124,124,124,124,124,0,1761604603.5650883
125,124,124,124,123,124,124,124,0,1761604603.565093
125,124,124,124,123,124,124,124,0,1761604603.6054692
125,124,124,124,124,124,124,124,0,1761604603.6054764
125,124,124,124,123,124,124,124,0,1761604603.6054814
125,124,124,124,124,124,124,124,0,1761604603.6054862
125,125,124,124,124,124,124,124,0,1761604603.6054907
125,125,124,124,124,124,124,124,0,1761604603.605495
125,125,124,124,124,124,124,125,0,1761604603.6054997
125,125,124,124,124,124,124,124,0,1761604603.6055045
125,125,124,124,124,124,124,124,0,1761604603.605509
125,124,124,124,124,124,124,124,0,1761604603.6055136
125,124,124,124,124,124,124,124,0,1761604603.605518
125,124,124,124,124,124,124,124,0,1761604603.6055226
125,124,124,124,124,124,124,124,0,1761604603.6055274
125,124,124,124,124,124,124,124,0,1761604603.6055317
125,124,124,124,124,125,124,124,0,1761604603.6055362
125,124,124,124,124,124,124,124,0,1761604603.6055415
125,124,124,124,124,124,124,124,0,1761604603.625736
125,124,124,124,123,124,124,124,0,1761604603.6257432
125,124,124,124,123,124,124,124,0,1761604603.6257482
125,124,124,124,124,124,124,124,0,1761604603.6257532
125,124,125,124,124,124,124,124,0,1761604603.6257577
125,124,125,124,124,124,124,124,0,1761604603.6257625
125,124,125,124,124,125,124,124,0,1761604603.6257675
125,124,125,124,124,125,124,124,0,1761604603.625772
125,124,124,124,124,124,124,124,0,1761604603.6257765
125,124,124,124,124,124,124,124,0,1761604603.6257813
125,124,124,124,124,124,124,124,0,1761604603.625786
125,124,124,124,124,124,124,124,0,1761604603.6257904
125,124,124,124,124,124,124,124,0,1761604603.6257954
125,124,124,124,124,124,124,125,0,1761604603.6258
125,124,124,124,124,124,124,124,0,1761604603.6258047
125,124,125,124,124,124,124,124,0,1761604603.6258097
125,124,124,124,124,124,124,124,0,1761604603.6661777
125,124,124,124,124,124,124,124,0,1761604603.666206
125,124,124,124,124,124,124,124,0,1761604603.6662292
125,123,124,124,123,124,124,124,0,1761604603.6662514
125,123,124,124,123,124,124,124,0,1761604603.666273
125,124,124,124,124,124,124,124,0,1761604603.666302
125,123,124,124,124,124,124,124,0,1761604603.6663241
125,124,124,124,124,124,124,124,0,1761604603.6663563
125,124,124,124,124,124,124,124,0,1761604603.6663716
125,125,124,124,124,124,124,124,0,1761604603.666383
125,125,124,124,124,124,124,124,0,1761604603.676501
125,125,124,124,124,124,124,124,0,1761604603.676508
125,124,124,124,124,124,124,124,0,1761604603.676513
125,124,124,124,124,124,124,124,0,1761604603.6765177
125,124,125,124,124,124,124,124,0,1761604603.6765223
125,124,124,124,124,124,124,125,0,1761604603.676527
125,124,124,124,124,124,124,125,0,1761604603.696722
125,124,124,124,124,124,124,124,0,1761604603.6967292
125,124,124,124,124,124,124,124,0,1761604603.6967344
125,124,124,124,124,124,124,124,0,1761604603.6967394
125,124,124,124,124,124,124,124,0,1761604603.696744
125,124,124,124,124,124,124,124,0,1761604603.6967485
125,124,124,124,124,124,124,124,0,1761604603.6967535
125,125,124,124,124,124,124,124,0,1761604603.6967578
125,125,124,124,124,124,124,124,0,1761604603.6967623
125,125,124,124,123,124,124,124,0,1761604603.696767
125,125,124,124,123,124,124,124,0,1761604603.6967716
125,125,124,124,123,124,124,124,0,1761604603.6967762
125,124,124,124,123,124,124,124,0,1761604603.6967807
125,124,124,124,123,124,124,124,0,1761604603.6967854
125,124,124,124,123,124,124,124,0,1761604603.69679
125,124,124,124,123,124,124,124,0,1761604603.6967952
125,124,124,124,124,124,124,124,0,1761604603.7371871
125,125,124,124,124,124,124,124,0,1761604603.737195
125,125,124,124,124,124,124,124,0,1761604603.7372
125,125,124,124,124,124,124,124,0,1761604603.7372048
125,124,124,124,124,124,124,124,0,1761604603.7372093
125,124,124,124,123,124,124,124,0,1761604603.7372139
125,124,124,124,123,124,124,124,0,1761604603.7372186
125,124,124,124,123,124,124,124,0,1761604603.737223
125,124,124,124,124,124,124,124,0,1761604603.7372274
125,125,124,124,123,124,124,124,0,1761604603.737232
125,125,124,124,123,124,124,124,0,1761604603.7372365
125,125,125,124,123,124,124,124,0,1761604603.7372408
125,124,124,124,123,124,124,124,0,1761604603.737245
125,124,124,124,124,124,124,124,0,1761604603.7372499
125,124,124,124,124,124,124,124,0,1761604603.7372544
125,124,124,124,124,124,124,124,0,1761604603.7372591
126,124,124,124,124,125,124,124,0,1761604603.7574515
125,124,124,124,124,125,124,124,0,1761604603.7574806
125,125,124,124,123,124,124,124,0,1761604603.7575128
125,124,124,123,123,124,124,124,0,1761604603.7676265
125,124,124,123,124,124,124,124,0,1761604603.767634
125,124,124,123,124,124,124,124,0,1761604603.7676387
125,124,124,124,123,124,124,124,0,1761604603.7676437
125,124,124,124,123,124,124,124,0,1761604603.7676482
125,124,125,124,124,124,124,124,0,1761604603.7676525
125,124,125,124,124,124,124,124,0,1761604603.7676573
125,124,124,124,124,124,125,124,0,1761604603.7676673
125,124,124,124,124,124,125,124,0,1761604603.7676725
125,124,124,124,123,124,124,124,0,1761604603.7676768
125,124,124,124,123,124,124,124,0,1761604603.7676816
125,124,124,124,123,124,124,124,0,1761604603.7676861
125,124,124,124,123,124,124,124,0,1761604603.767691
125,124,124,124,124,124,124,124,0,1761604603.8080595
125,124,124,124,124,124,124,124,0,1761604603.8080668
126,125,124,124,124,124,124,124,0,1761604603.808072
126,125,124,124,124,124,124,124,0,1761604603.8080773
125,125,125,124,124,124,124,124,0,1761604603.8080819
125,124,124,124,124,124,124,124,0,1761604603.8080866
125,124,124,124,123,124,124,124,0,1761604603.8080914
125,124,124,124,124,124,124,124,0,1761604603.808096
125,124,124,124,124,124,124,124,0,1761604603.8081007
125,124,124,124,124,124,124,124,0,1761604603.8081052
125,125,124,124,124,124,124,124,0,1761604603.80811
125,125,124,124,124,124,124,125,0,1761604603.8081152
125,125,124,124,124,124,124,124,0,1761604603.808129
125,125,124,124,124,124,124,124,0,1761604603.8081343
125,124,124,124,124,124,124,124,0,1761604603.808139
125,124,124,124,124,124,124,124,0,1761604603.808144
125,123,124,124,124,124,124,124,0,1761604603.8283389
125,123,124,124,124,124,124,124,0,1761604603.828346
125,123,124,124,124,124,124,124,0,1761604603.8283513
125,124,124,124,124,124,124,124,0,1761604603.8283563
125,124,124,124,124,124,124,124,0,1761604603.8283691
125,124,124,124,124,124,124,124,0,1761604603.8283749
125,124,124,124,124,124,124,124,0,1761604603.8283799
125,124,124,124,124,124,124,124,0,1761604603.8283844
125,124,124,124,124,124,124,124,0,1761604603.8283892
125,125,125,124,124,124,124,125,0,1761604603.828394
125,125,125,124,124,124,124,125,0,1761604603.8283987
125,125,124,124,124,124,124,124,0,1761604603.8284032
125,124,124,124,123,124,124,124,0,1761604603.8284078
125,124,124,124,123,124,124,124,0,1761604603.828412
125,124,124,124,123,124,124,124,0,1761604603.828417
125,124,124,124,123,124,124,124,0,1761604603.8284354
125,124,124,124,123,124,124,124,0,1761604603.8688033
125,124,124,125,124,124,124,124,0,1761604603.8688316
125,124,124,124,124,125,124,124,0,1761604603.8688624
125,124,124,124,124,125,124,124,0,1761604603.8688977
125,124,124,124,124,125,124,124,0,1761604603.868919
125,124,124,124,124,124,124,124,0,1761604603.8689415
125,124,124,124,124,124,124,124,0,1761604603.8790574
125,124,124,124,124,124,124,124,0,1761604603.8790646
125,124,124,124,124,124,124,124,0,1761604603.879069
126,124,124,124,124,124,124,124,0,1761604603.8790739
125,124,124,124,124,125,124,124,0,1761604603.8790784
125,124,124,124,124,125,124,124,0,1761604603.8790827
125,124,124,124,124,125,124,124,0,1761604603.8790874
125,125,124,124,124,125,124,124,0,1761604603.8790922
125,124,124,124,124,125,124,124,0,1761604603.8791018
125,124,124,124,123,125,124,124,0,1761604603.879107
125,124,124,124,123,125,124,124,0,1761604603.899305
125,124,124,124,123,124,124,124,0,1761604603.8993125
125,124,124,124,124,124,124,124,0,1761604603.8993175
125,124,124,124,124,124,124,124,0,1761604603.8993225
125,125,124,124,124,124,124,125,0,1761604603.8993273
125,125,124,124,123,124,124,124,0,1761604603.8993318
125,125,124,124,123,124,124,124,0,1761604603.8993368
125,125,124,124,123,124,124,124,0,1761604603.8993413
125,125,124,124,123,124,124,124,0,1761604603.8993459
125,125,124,124,123,124,124,124,0,1761604603.8993506
125,124,124,124,123,124,124,124,0,1761604603.8993552
125,124,125,124,124,124,124,124,0,1761604603.8993597
125,124,124,124,124,124,124,124,0,1761604603.8993642
125,125,124,124,124,124,124,124,0,1761604603.899369
125,124,124,124,124,124,124,124,0,1761604603.8993735
125,124,124,124,124,124,124,124,0,1761604603.8993788
125,124,124,124,123,124,124,124,0,1761604603.939779
125,123,124,124,123,124,124,124,0,1761604603.9397867
125,123,124,124,124,124,124,124,0,1761604603.9397922
125,124,124,124,124,124,124,124,0,1761604603.9397967
125,124,124,124,124,124,124,124,0,1761604603.9398017
126,125,124,124,124,125,124,124,0,1761604603.9398062
125,125,124,124,124,124,124,124,0,1761604603.9398108
125,124,124,124,124,124,124,124,0,1761604603.9398155
125,124,124,124,123,124,124,124,0,1761604603.9398203
125,124,124,124,123,124,124,124,0,1761604603.9398248
125,124,124,124,123,124,123,124,0,1761604603.9398296
125,124,124,124,123,124,124,124,0,1761604603.939834
125,124,124,124,124,124,124,124,0,1761604603.9398828
125,124,124,124,124,124,124,124,0,1761604603.9398885
125,124,124,124,124,124,124,124,0,1761604603.939893
125,124,124,124,124,124,124,124,0,1761604603.9398983
125,124,124,124,124,124,124,124,0,1761604603.9701862
125,124,124,124,124,124,124,124,0,1761604603.9701934
125,124,124,124,123,124,124,124,0,1761604603.9701989
125,124,124,124,124,124,124,124,0,1761604603.9702036
125,124,124,124,124,124,124,125,0,1761604603.9702084
125,124,124,124,124,124,124,124,0,1761604603.9702134
125,124,124,125,124,124,124,124,0,1761604603.9702182
125,124,124,124,124,124,124,124,0,1761604603.9702232
125,124,124,124,124,124,124,124,0,1761604603.9702277
125,124,124,124,124,124,124,124,0,1761604603.9702325
125,124,124,124,124,124,124,125,0,1761604603.970247
126,124,124,124,124,124,124,125,0,1761604603.9702516
126,124,124,124,124,125,124,124,0,1761604603.970256
125,124,124,124,124,125,124,124,0,1761604603.9702606
125,124,124,124,124,125,124,124,0,1761604603.9702654
125,124,124,124,124,124,124,124,0,1761604603.9702704
125,124,124,124,123,124,124,124,0,1761604604.0106666
125,124,124,123,123,124,124,124,0,1761604604.0106747
125,124,124,123,123,124,124,124,0,1761604604.01068
125,124,124,123,123,124,124,124,0,1761604604.010685
125,124,124,123,123,124,124,125,0,1761604604.0106897
125,125,124,124,124,124,124,125,0,1761604604.0106947
125,125,124,124,124,124,124,125,0,1761604604.0106995
125,124,124,124,124,124,124,124,0,1761604604.0107043
125,125,124,124,123,124,124,124,0,1761604604.0107093
125,124,124,124,123,124,123,124,0,1761604604.010714
125,124,124,124,124,124,123,124,0,1761604604.010719
125,124,124,124,124,124,123,124,0,1761604604.0107238
125,124,124,124,124,124,123,124,0,1761604604.010739
125,123,125,125,124,124,123,124,0,1761604604.0107481
125,124,125,124,124,124,124,124,0,1761604604.0107632
125,125,124,124,124,124,124,124,0,1761604604.0107675
125,124,124,124,124,124,124,125,0,1761604604.0309713
125,124,124,124,124,124,124,124,0,1761604604.030979
125,124,124,124,124,124,124,124,0,1761604604.0309842
125,123,124,124,124,124,124,124,0,1761604604.0309894
125,123,124,124,124,124,124,124,0,1761604604.030994
125,123,124,124,124,124,124,124,0,1761604604.0309987
125,123,124,124,124,124,124,124,0,1761604604.0310037
125,124,124,124,124,124,124,124,0,1761604604.0310082
125,124,124,124,124,124,124,124,0,1761604604.031013
125,124,124,124,124,124,124,124,0,1761604604.031018
125,124,124,124,124,124,124,124,0,1761604604.0310225
125,125,124,124,124,124,124,124,0,1761604604.0310273
125,124,124,124,124,124,124,124,0,1761604604.0310318
126,124,124,124,124,124,124,124,0,1761604604.0310366
125,124,124,124,124,124,124,124,0,1761604604.0310414
125,124,124,124,124,124,124,124,0,1761604604.0310464
125,124,124,124,124,124,124,124,0,1761604604.0714145
125,123,124,124,123,124,124,124,0,1761604604.071444
125,122,124,124,123,124,124,124,0,1761604604.0714672
125,122,124,124,123,124,124,124,0,1761604604.0714889
125,122,124,124,123,124,124,124,0,1761604604.071504
125,121,124,124,124,124,124,124,0,1761604604.0715144
125,122,124,124,124,124,124,124,0,1761604604.0715244
125,124,124,124,124,125,124,124,0,1761604604.0715337
125,124,124,124,124,124,124,124,0,1761604604.0715435
125,125,124,124,124,124,124,124,0,1761604604.0715528
125,126,124,124,123,124,124,124,0,1761604604.0715744
125,126,124,124,123,124,124,124,0,1761604604.0716
125,126,124,124,123,124,124,124,0,1761604604.0817113
125,125,124,124,123,124,124,124,0,1761604604.0817182
125,125,125,124,124,124,124,124,0,1761604604.0817235
125,125,125,124,124,124,124,125,0,1761604604.0817282
125,125,125,124,123,124,124,125,0,1761604604.1019218
125,124,124,124,123,124,124,124,0,1761604604.1019287
125,124,124,124,123,124,124,124,0,1761604604.1019402
125,124,124,124,123,124,124,124,0,1761604604.1019473
125,124,124,124,123,124,124,124,0,1761604604.1019523
125,124,124,124,123,124,124,124,0,1761604604.1019568
125,125,124,124,123,124,124,124,0,1761604604.1019614
125,124,124,124,123,124,124,124,0,1761604604.1019661
125,125,125,124,123,124,124,124,0,1761604604.1019707
125,125,124,124,124,124,124,124,0,1761604604.101975
125,124,124,124,124,124,124,124,0,1761604604.1019797
125,124,124,124,124,124,124,124,0,1761604604.101984
125,124,124,124,124,124,124,124,0,1761604604.1019886
125,124,124,124,124,124,124,124,0,1761604604.1019928
125,124,124,124,124,124,124,124,0,1761604604.1019976
126,124,124,124,124,124,124,124,0,1761604604.1020043
125,124,124,124,124,125,124,124,0,1761604604.142378
125,124,124,124,124,124,124,124,0,1761604604.1423845
125,124,124,124,124,124,124,124,0,1761604604.1423898
125,124,124,124,124,124,124,124,0,1761604604.1423945
125,124,124,124,124,124,123,124,0,1761604604.1423995
125,124,124,124,124,124,123,124,0,1761604604.142404
125,124,124,124,124,124,124,125,0,1761604604.1424086
125,124,124,124,124,124,124,124,0,1761604604.1424131
125,124,124,124,124,124,124,124,0,1761604604.1424177
125,124,124,124,124,124,124,124,0,1761604604.1424222
125,124,124,124,123,124,124,124,0,1761604604.142427
125,124,124,124,123,124,124,124,0,1761604604.1424315
125,124,124,124,123,124,124,124,0,1761604604.142436
125,124,124,124,123,124,124,124,0,1761604604.1424408
125,124,124,124,123,124,124,124,0,1761604604.1424453
125,124,124,124,124,124,124,124,0,1761604604.1424503
125,124,124,124,124,124,124,124,0,1761604604.1626258
125,124,124,124,124,124,124,124,0,1761604604.1626632
125,124,124,124,124,124,124,124,0,1761604604.1626856
125,124,124,124,124,124,124,124,0,1761604604.1627076
125,124,124,124,123,124,124,124,0,1761604604.172822
126,124,124,123,123,124,124,124,0,1761604604.172829
125,124,124,124,123,124,124,124,0,1761604604.1728337
125,124,124,124,124,124,124,124,0,1761604604.1728384
125,125,125,124,124,124,124,124,0,1761604604.172843
125,125,125,124,124,124,124,124,0,1761604604.1728475
125,125,125,124,124,124,124,124,0,1761604604.1728523
125,125,124,124,124,124,124,124,0,1761604604.1728566
126,124,124,124,123,124,124,124,0,1761604604.172861
126,124,124,124,123,124,124,124,0,1761604604.1728656
125,124,124,124,123,124,124,124,0,1761604604.17287
126,124,124,124,123,124,124,124,0,1761604604.1728752
125,124,124,124,124,124,124,124,0,1761604604.2132695
125,125,124,124,124,124,124,124,0,1761604604.2132766
125,124,124,124,124,124,124,124,0,1761604604.2132816
125,124,124,124,124,124,124,124,0,1761604604.2132864
125,124,124,124,124,124,124,124,0,1761604604.213291
125,124,124,124,124,124,124,124,0,1761604604.2132955
125,123,124,124,124,124,124,124,0,1761604604.213306
125,123,124,124,124,124,124,124,0,1761604604.2133112
125,124,124,124,124,124,124,124,0,1761604604.2133157
125,124,124,124,124,124,124,124,0,1761604604.2133203
125,124,124,124,124,124,124,124,0,1761604604.2133248
125,124,124,124,124,124,124,124,0,1761604604.2133293
125,124,124,124,124,124,124,124,0,1761604604.2133338
125,124,124,124,123,124,124,124,0,1761604604.2133384
125,124,124,124,124,124,124,124,0,1761604604.2133427
125,124,124,124,123,124,124,124,0,1761604604.2133474
125,124,124,124,124,124,124,124,0,1761604604.2335424
125,125,125,124,124,124,124,124,0,1761604604.2335494
125,124,125,125,124,124,124,124,0,1761604604.2335544
125,124,124,124,124,124,124,124,0,1761604604.2335594
125,124,124,124,124,124,123,124,0,1761604604.2335641
125,124,124,124,124,124,123,124,0,1761604604.233569
125,124,124,124,124,124,123,123,0,1761604604.2335737
125,124,124,124,124,124,123,124,0,1761604604.2335782
125,124,124,124,124,124,123,124,0,1761604604.2335832
125,124,124,124,124,124,124,124,0,1761604604.2335932
125,124,124,124,124,124,124,124,0,1761604604.2335987
125,124,124,124,124,124,124,124,0,1761604604.2336032
125,124,124,124,124,124,124,124,0,1761604604.233608
125,124,124,124,124,124,124,124,0,1761604604.233613
125,124,124,124,124,124,124,124,0,1761604604.2336178
125,124,124,124,124,124,124,124,0,1761604604.2336276
125,124,124,124,124,124,124,124,0,1761604604.273994
125,124,125,124,124,124,124,124,0,1761604604.2740214
125,124,125,124,124,124,124,124,0,1761604604.2740443
125,124,124,124,124,124,124,124,0,1761604604.2740662
125,124,124,124,124,124,124,124,0,1761604604.274087
125,124,124,124,124,124,124,124,0,1761604604.2741077
125,124,124,124,124,124,124,124,0,1761604604.2741194
125,124,124,124,124,124,124,124,0,1761604604.2741401
125,124,124,124,124,124,124,124,0,1761604604.284257
125,124,124,124,124,124,124,124,0,1761604604.284264
126,124,125,124,124,124,124,125,0,1761604604.2842696
126,124,124,124,123,124,124,125,0,1761604604.2842743
125,124,124,124,123,124,124,124,0,1761604604.284279
125,124,124,124,123,124,124,124,0,1761604604.2842836
125,124,124,124,123,124,124,124,0,1761604604.284288
125,124,124,124,123,124,124,124,0,1761604604.284293
125,124,124,124,123,124,124,123,0,1761604604.304488
126,124,124,124,123,124,124,124,0,1761604604.3044949
125,124,124,124,124,124,124,124,0,1761604604.3044996
125,124,124,124,124,124,124,124,0,1761604604.3045046
125,124,124,124,124,124,124,124,0,1761604604.3045092
125,124,124,124,124,124,124,124,0,1761604604.3045137
125,124,124,124,124,124,124,124,0,1761604604.3045187
125,124,124,124,124,124,124,124,0,1761604604.3045232
125,124,124,124,123,124,124,124,0,1761604604.3045278
125,124,124,124,123,124,124,124,0,1761604604.3045325
125,124,125,125,124,124,124,124,0,1761604604.304542
125,124,124,124,123,124,124,124,0,1761604604.304547
125,124,124,124,123,124,124,124,0,1761604604.3045516
125,124,124,124,124,124,124,124,0,1761604604.3045561
125,124,124,124,124,124,124,124,0,1761604604.3045607
125,124,124,124,123,124,124,124,0,1761604604.3045654
125,124,124,124,124,124,124,124,0,1761604604.3449464
125,124,124,124,124,124,124,124,0,1761604604.3449533
125,124,124,124,124,124,124,124,0,1761604604.3449585
125,124,124,124,124,124,124,124,0,1761604604.344963
125,124,124,124,124,124,124,124,0,1761604604.3449676
125,124,124,124,124,124,124,124,0,1761604604.3449726
125,124,124,124,123,124,124,124,0,1761604604.3449771
125,124,124,123,123,124,124,124,0,1761604604.3449817
125,124,124,123,123,124,124,124,0,1761604604.3449862
125,123,124,123,123,124,124,124,0,1761604604.3449907
125,123,124,124,123,124,124,124,0,1761604604.344995
125,124,124,124,124,124,124,124,0,1761604604.3449998
125,124,124,124,124,124,124,125,0,1761604604.3450046
125,124,124,124,124,125,124,125,0,1761604604.345009
125,125,125,124,124,124,124,124,0,1761604604.3450139
125,125,124,124,124,124,124,124,0,1761604604.3450189
125,124,124,124,123,124,124,124,0,1761604604.365199
125,124,124,124,123,124,124,124,0,1761604604.375317
125,124,124,124,123,124,124,124,0,1761604604.3753295
125,124,124,124,123,124,124,124,0,1761604604.3753355
125,124,124,124,123,124,124,124,0,1761604604.3753402
125,124,124,124,124,124,124,124,0,1761604604.375345
125,124,124,124,124,124,124,124,0,1761604604.3753495
125,124,124,124,124,124,124,124,0,1761604604.3753538
125,124,124,124,124,124,124,124,0,1761604604.3753586
125,124,124,124,124,124,124,124,0,1761604604.3753629
125,124,124,124,124,124,124,124,0,1761604604.3753674
125,124,124,124,124,124,124,124,0,1761604604.375372
125,124,124,124,124,124,124,124,0,1761604604.3753765
125,124,124,125,124,124,124,124,0,1761604604.375381
125,124,124,125,124,124,124,124,0,1761604604.3753855
125,124,124,124,124,124,124,124,0,1761604604.375393
125,124,124,124,124,124,124,124,0,1761604604.415737
125,124,124,124,123,124,124,124,0,1761604604.4157443
125,123,124,124,123,124,124,124,0,1761604604.4157493
125,123,124,124,123,124,124,124,0,1761604604.4157543
125,124,124,124,123,124,124,124,0,1761604604.415759
125,124,124,124,123,124,124,124,0,1761604604.415773
125,124,124,124,124,125,124,125,0,1761604604.4157774
125,125,125,124,124,124,124,124,0,1761604604.4157822
125,125,125,124,124,124,124,124,0,1761604604.415787
125,125,125,124,124,124,124,124,0,1761604604.4157915
125,125,124,124,124,124,124,124,0,1761604604.4157963
125,124,124,124,124,124,124,124,0,1761604604.4158008
125,124,124,124,124,124,124,124,0,1761604604.4158115
125,124,124,124,123,124,124,124,0,1761604604.4158168
125,124,124,124,123,124,124,125,0,1761604604.415821
125,124,124,124,123,124,124,124,0,1761604604.4158263
126,125,124,124,123,124,124,124,0,1761604604.4360251
125,125,124,124,123,124,124,124,0,1761604604.4360318
125,124,124,124,124,124,124,124,0,1761604604.4360368
125,124,124,124,124,124,124,124,0,1761604604.4360418
125,124,124,124,124,124,124,124,0,1761604604.4360464
125,124,124,124,124,124,124,124,0,1761604604.436051
125,124,124,124,124,124,124,124,0,1761604604.436056
125,124,124,125,124,124,124,124,0,1761604604.4360604
125,125,124,124,124,124,124,125,0,1761604604.436065
125,125,124,124,124,124,124,124,0,1761604604.4360697
125,124,124,124,124,124,124,124,0,1761604604.436074
125,125,124,124,123,124,124,124,0,1761604604.4360785
125,125,124,124,123,124,124,124,0,1761604604.4360833
125,124,125,124,123,124,124,124,0,1761604604.4360876
125,124,124,124,123,124,124,125,0,1761604604.4360921
125,125,124,124,123,124,124,124,0,1761604604.436097
125,124,124,124,123,124,124,124,0,1761604604.4764607
125,124,124,124,124,124,124,124,0,1761604604.4764893
125,124,124,124,124,124,124,124,0,1761604604.4765117
125,124,124,124,124,124,124,124,0,1761604604.4765275
125,124,124,124,124,124,124,124,0,1761604604.4765382
125,124,124,124,124,124,124,124,0,1761604604.4765484
125,124,124,124,124,124,124,124,0,1761604604.4765577
125,124,125,124,124,124,124,124,0,1761604604.4765668
125,124,125,124,124,124,124,124,0,1761604604.4765759
125,124,124,124,124,124,124,124,0,1761604604.4765844
125,124,124,124,124,124,124,124,0,1761604604.476598
125,124,124,124,124,124,123,123,0,1761604604.4766216
125,124,124,124,124,124,124,124,0,1761604604.4766436
125,124,124,124,124,124,124,124,0,1761604604.4867594
125,124,124,124,124,124,124,124,0,1761604604.4867666
125,124,124,124,124,124,124,124,0,1761604604.4867713
125,124,124,124,124,124,124,124,0,1761604604.5271537
125,124,124,124,124,124,124,124,0,1761604604.527161
125,124,124,124,124,124,123,124,0,1761604604.527166
125,124,124,124,123,124,123,124,0,1761604604.527171
125,124,124,124,123,124,124,124,0,1761604604.5271754
125,125,124,124,123,124,124,124,0,1761604604.5271797
125,125,125,124,123,124,124,124,0,1761604604.5271845
125,124,125,124,123,124,124,125,0,1761604604.527189
125,125,125,124,124,124,124,125,0,1761604604.5271933
125,124,124,124,124,124,124,124,0,1761604604.5271978
125,124,124,124,124,124,124,124,0,1761604604.5272026
125,124,124,124,124,124,124,124,0,1761604604.527207
125,123,124,124,123,124,124,124,0,1761604604.5272114
125,123,124,124,123,124,124,124,0,1761604604.5272162
125,124,124,124,123,124,124,124,0,1761604604.5272205
125,124,124,124,124,124,124,124,0,1761604604.5272357
126,124,124,124,124,124,124,124,0,1761604604.5474317
126,125,124,124,124,124,124,124,0,1761604604.5474389
125,124,124,125,124,124,124,124,0,1761604604.5474439
125,124,124,125,124,124,124,124,0,1761604604.5474486
125,124,124,124,124,124,124,124,0,1761604604.5474534
125,123,124,124,124,124,124,124,0,1761604604.547458
125,123,124,124,123,124,124,124,0,1761604604.5474627
125,123,124,124,123,124,124,124,0,1761604604.5474675
125,124,124,124,123,124,124,124,0,1761604604.5474722
125,124,124,124,124,124,124,124,0,1761604604.5474768
125,124,124,124,124,124,124,124,0,1761604604.5474813
125,125,124,124,124,124,124,124,0,1761604604.547486
125,125,124,124,124,124,124,124,0,1761604604.5474906
125,124,124,124,124,124,124,124,0,1761604604.5474951
125,124,124,124,124,124,124,124,0,1761604604.5475
125,124,124,124,124,124,124,124,0,1761604604.547505
125,124,124,124,124,124,124,124,0,1761604604.5979855
125,124,124,124,124,125,124,124,0,1761604604.5979922
125,124,124,124,124,125,124,124,0,1761604604.5979974
125,124,124,124,124,124,123,124,0,1761604604.5980022
125,124,124,124,124,124,123,124,0,1761604604.5980067
125,124,124,124,124,124,123,124,0,1761604604.5980115
125,124,124,124,124,124,124,124,0,1761604604.598016
125,125,124,124,124,124,124,124,0,1761604604.5980206
125,125,124,124,124,124,124,124,0,1761604604.5980256
125,125,125,124,124,124,124,124,0,1761604604.5980299
125,125,124,124,124,124,124,124,0,1761604604.5980344
125,124,124,124,124,124,124,124,0,1761604604.5980387
125,124,124,124,124,124,124,124,0,1761604604.5980434
125,124,124,124,123,124,124,124,0,1761604604.598048
125,124,124,124,123,124,124,124,0,1761604604.5980525
125,123,124,124,123,124,124,124,0,1761604604.5980575
125,123,124,124,123,124,124,124,0,1761604604.6182635
125,124,124,124,123,124,124,124,0,1761604604.6182706
125,124,124,124,123,124,124,124,0,1761604604.6182756
125,124,124,124,123,124,124,124,0,1761604604.6182804
125,124,124,124,124,124,124,124,0,1761604604.618285
125,124,124,124,124,124,124,124,0,1761604604.6182897
125,124,124,124,124,124,124,124,0,1761604604.618294
125,123,124,124,124,124,124,124,0,1761604604.6182985
125,123,124,124,124,124,124,124,0,1761604604.618303
126,124,124,124,124,124,124,124,0,1761604604.6183076
126,124,125,124,124,124,124,124,0,1761604604.6183121
126,125,125,124,124,124,124,124,0,1761604604.618317
126,125,124,124,124,124,124,124,0,1761604604.6183212
126,125,124,124,124,125,124,124,0,1761604604.6183257
126,125,124,124,124,125,124,124,0,1761604604.6183305
126,125,124,124,124,125,124,124,0,1761604604.6183357
126,124,124,124,124,125,124,124,0,1761604604.6586905
125,124,124,124,124,125,124,124,0,1761604604.6586986
125,124,124,124,124,125,124,124,0,1761604604.6587121
125,124,124,124,124,125,124,124,0,1761604604.6587176
125,124,124,124,124,124,124,124,0,1761604604.6587226
125,124,124,124,124,124,124,124,0,1761604604.6587274
125,124,124,124,123,124,124,124,0,1761604604.6587317
125,124,124,124,123,124,124,124,0,1761604604.6587367
125,124,124,124,124,124,124,124,0,1761604604.6587412
125,124,124,124,124,124,124,124,0,1761604604.6587458
126,124,124,124,124,124,124,125,0,1761604604.6587503
125,124,124,124,124,124,124,124,0,1761604604.6587548
125,124,124,124,124,124,124,124,0,1761604604.6587594
125,124,124,124,124,124,124,124,0,1761604604.658764
125,124,124,124,124,124,124,124,0,1761604604.65877
125,124,124,124,124,124,124,124,0,1761604604.6587756
125,124,124,124,124,124,124,124,0,1761604604.6789548
125,124,124,124,124,124,124,125,0,1761604604.6789825
125,124,124,124,124,124,124,125,0,1761604604.679005
125,124,124,124,124,124,124,125,0,1761604604.6790261
125,124,124,124,124,124,124,125,0,1761604604.679047
125,124,124,124,124,124,124,124,0,1761604604.679069
125,124,124,124,124,124,124,124,0,1761604604.6790907
126,124,124,124,124,124,124,124,0,1761604604.6892014
125,124,124,124,124,124,124,124,0,1761604604.6892085
125,124,124,124,124,124,124,124,0,1761604604.6892138
125,124,124,124,124,124,124,124,0,1761604604.6892183
125,124,124,124,124,124,124,124,0,1761604604.6892226
125,124,124,124,124,124,124,124,0,1761604604.689227
125,124,124,124,124,125,124,124,0,1761604604.6892316
125,124,124,124,124,124,124,124,0,1761604604.6892362
125,124,124,124,124,124,124,124,0,1761604604.6892414
125,124,124,124,124,125,124,124,0,1761604604.7296295
125,124,124,124,124,125,124,124,0,1761604604.7296367
125,124,124,124,124,124,124,124,0,1761604604.729642
125,124,124,124,124,124,124,124,0,1761604604.7296467
125,125,125,124,124,124,124,124,0,1761604604.7296515
125,125,124,124,124,124,124,124,0,1761604604.729656
125,125,124,124,123,124,124,124,0,1761604604.729661
125,124,124,124,124,124,124,124,0,1761604604.7296655
125,124,124,124,124,124,124,124,0,1761604604.72967
125,124,124,124,124,124,124,124,0,1761604604.7296748
125,124,124,124,124,124,124,124,0,1761604604.7296793
125,124,124,124,124,124,124,124,0,1761604604.7296839
125,124,124,124,123,124,124,124,0,1761604604.7296884
125,124,124,124,123,124,124,124,0,1761604604.729693
125,124,124,124,123,124,124,124,0,1761604604.7296975
125,124,124,124,123,124,124,124,0,1761604604.7297027
125,124,124,124,123,124,124,124,0,1761604604.7498965
125,124,124,124,124,124,124,124,0,1761604604.7499032
125,124,124,124,124,124,124,124,0,1761604604.7499082
125,124,125,124,124,124,124,124,0,1761604604.749923
125,124,125,124,124,125,124,124,0,1761604604.7499282
125,125,124,124,124,125,124,124,0,1761604604.749933
125,125,124,124,124,124,124,124,0,1761604604.7499442
125,124,124,124,124,124,124,124,0,1761604604.7499497
125,124,124,124,124,124,124,124,0,1761604604.7499545
125,124,124,124,123,123,124,124,0,1761604604.7499592
125,124,125,124,123,124,124,124,0,1761604604.749964
125,124,125,124,123,124,124,124,0,1761604604.749969
125,124,125,125,123,124,124,125,0,1761604604.7499735
125,125,125,124,123,124,124,125,0,1761604604.749978
125,125,125,124,123,124,124,125,0,1761604604.7499828
125,125,125,124,124,124,124,125,0,1761604604.7499876
125,124,124,124,124,124,124,124,0,1761604604.790358
125,124,124,124,124,124,124,124,0,1761604604.7903957
125,124,124,124,124,124,124,124,0,1761604604.800504
125,124,124,124,124,124,124,124,0,1761604604.8005106
125,124,124,124,124,124,124,124,0,1761604604.800516
125,124,124,124,124,124,124,124,0,1761604604.8005204
125,124,124,124,124,124,124,124,0,1761604604.800525
125,124,124,124,124,124,124,124,0,1761604604.8005297
125,124,124,124,123,124,124,124,0,1761604604.8005342
125,124,124,124,123,124,124,124,0,1761604604.8005388
125,124,124,124,123,124,124,124,0,1761604604.8005435
125,124,124,124,124,124,124,124,0,1761604604.8005478
125,125,124,124,124,124,124,124,0,1761604604.8005524
125,124,124,124,124,124,124,124,0,1761604604.800557
125,124,124,124,124,124,124,124,0,1761604604.8005674
125,124,124,124,124,124,124,124,0,1761604604.800573
125,123,124,124,124,124,124,124,0,1761604604.8207662
125,123,124,124,124,124,124,124,0,1761604604.820773
125,124,124,124,124,124,124,124,0,1761604604.820778
125,124,124,124,124,124,124,124,0,1761604604.8207827
125,125,124,124,124,124,124,124,0,1761604604.8207874
125,125,124,124,124,124,124,124,0,1761604604.8207924
125,125,124,124,124,124,124,124,0,1761604604.820797
125,125,124,124,124,124,124,124,0,1761604604.8208013
125,125,124,124,123,124,124,124,0,1761604604.8208058
125,125,124,124,123,124,124,124,0,1761604604.8208103
125,124,124,124,123,124,124,124,0,1761604604.8208148
125,124,124,124,123,124,124,124,0,1761604604.8208194
125,124,124,124,123,124,124,124,0,1761604604.8208241
125,124,124,124,124,124,124,124,0,1761604604.8208287
125,124,124,125,124,124,124,124,0,1761604604.820833
125,124,124,124,124,124,124,124,0,1761604604.8208382
125,124,124,124,124,124,124,124,0,1761604604.8612263
125,124,124,124,124,124,124,124,0,1761604604.8612337
125,124,124,124,123,124,124,124,0,1761604604.8612387
125,124,124,124,123,124,124,124,0,1761604604.861244
125,124,124,124,124,124,124,124,0,1761604604.8612487
125,124,124,124,124,124,124,124,0,1761604604.8612533
125,124,124,124,124,124,124,124,0,1761604604.861258
125,125,125,124,124,124,124,124,0,1761604604.8612628
125,124,125,124,123,124,124,124,0,1761604604.8612726
125,124,125,124,123,124,124,124,0,1761604604.8612776
125,124,125,124,123,123,124,124,0,1761604604.8612823
125,124,125,124,123,123,124,124,0,1761604604.8612869
125,124,125,124,124,124,124,124,0,1761604604.8612914
125,124,125,125,124,124,124,124,0,1761604604.8612964
125,124,125,125,124,124,124,124,0,1761604604.861301
125,124,125,124,124,124,124,124,0,1761604604.861306
125,125,125,124,124,124,124,124,0,1761604604.8814895
125,125,124,124,124,124,124,124,0,1761604604.8815172
125,125,124,124,124,124,124,124,0,1761604604.8815396
125,124,124,124,124,124,124,124,0,1761604604.8815608
125,124,124,124,124,124,124,124,0,1761604604.881573
125,124,124,124,124,124,124,124,0,1761604604.8815827
125,124,124,124,124,124,124,124,0,1761604604.8815978
125,125,124,124,124,124,124,124,0,1761604604.8816082
125,124,124,124,124,124,124,124,0,1761604604.8816173
125,124,124,124,124,124,124,124,0,1761604604.8816266
125,124,124,124,123,124,124,124,0,1761604604.8816361
125,124,124,124,123,124,124,124,0,1761604604.8816576
125,124,124,124,124,124,124,124,0,1761604604.8816788
125,124,125,125,124,124,124,124,0,1761604604.8917937
125,124,125,125,124,124,124,124,0,1761604604.8918006
125,124,125,124,124,124,124,124,0,1761604604.891806
125,124,125,124,124,124,124,124,0,1761604604.932182
125,124,124,124,124,124,124,124,0,1761604604.9321895
125,124,124,124,123,124,124,124,0,1761604604.9322004
125,124,124,124,124,124,124,124,0,1761604604.9322064
125,124,124,124,124,124,124,124,0,1761604604.9322112
125,124,124,124,124,124,124,124,0,1761604604.9322157
125,124,124,124,124,124,124,124,0,1761604604.9322205
125,124,124,124,124,124,124,124,0,1761604604.932225
125,124,124,124,124,124,124,124,0,1761604604.9322295
125,124,124,124,124,124,124,124,0,1761604604.932234
125,124,124,124,124,124,124,124,0,1761604604.9322386
125,124,124,124,124,124,124,124,0,1761604604.9322429
125,124,124,124,124,124,124,124,0,1761604604.9322476
125,124,124,124,124,124,124,124,0,1761604604.9322522
125,124,124,124,124,124,124,124,0,1761604604.9322588
125,124,124,124,124,124,124,124,0,1761604604.9322646
125,124,124,124,124,124,124,124,0,1761604604.9524798
125,124,124,125,124,124,124,124,0,1761604604.9524868
125,124,124,124,123,124,124,124,0,1761604604.9524915
125,124,124,124,123,124,124,124,0,1761604604.952496
125,124,124,124,123,124,124,124,0,1761604604.9525013
125,124,124,124,123,123,123,124,0,1761604604.9525058
125,124,125,124,123,124,123,124,0,1761604604.9525104
125,124,125,124,124,124,124,124,0,1761604604.9525151
125,124,125,124,124,124,124,125,0,1761604604.9525197
125,124,125,124,124,124,124,125,0,1761604604.952524
125,124,125,124,124,124,124,125,0,1761604604.9525285
125,124,124,124,124,124,124,124,0,1761604604.9525383
125,125,124,124,123,124,124,124,0,1761604604.9525437
125,124,124,124,123,124,124,124,0,1761604604.952548
125,124,124,124,123,124,123,124,0,1761604604.9525528
125,124,124,124,123,124,123,124,0,1761604604.9525576
125,124,124,124,123,124,124,124,0,1761604605.0030954
125,124,124,124,123,124,124,124,0,1761604605.003102
125,125,124,124,124,124,124,124,0,1761604605.003107
125,125,124,124,124,124,124,125,0,1761604605.0031116
125,125,124,124,123,124,124,125,0,1761604605.0031164
125,125,124,124,123,124,124,125,0,1761604605.003121
125,124,124,124,123,124,124,125,0,1761604605.0031254
125,125,125,124,123,124,124,125,0,1761604605.0031302
125,125,125,124,123,124,124,124,0,1761604605.0031347
125,125,125,124,124,124,124,124,0,1761604605.0031393
125,124,124,124,124,124,124,124,0,1761604605.0031438
125,124,124,124,124,125,124,124,0,1761604605.0031483
125,124,124,124,124,125,124,124,0,1761604605.0031528
125,124,124,124,123,124,124,124,0,1761604605.0031571
125,124,124,124,123,124,124,124,0,1761604605.003162
125,124,124,124,124,124,124,124,0,1761604605.0031667
125,124,124,124,124,124,124,125,0,1761604605.0233696
125,124,124,125,124,124,124,125,0,1761604605.0233767
125,124,124,124,124,124,124,125,0,1761604605.0233815
125,124,124,124,124,124,124,125,0,1761604605.023386
125,124,124,124,124,124,124,125,0,1761604605.0233908
125,124,124,124,124,124,124,124,0,1761604605.0233953
125,124,124,124,123,124,124,124,0,1761604605.0233998
125,124,124,124,123,124,124,124,0,1761604605.0234046
125,124,124,124,124,124,124,124,0,1761604605.023409
125,124,124,124,124,124,124,124,0,1761604605.0234132
125,124,124,125,124,124,124,125,0,1761604605.023418
125,125,124,124,124,124,124,125,0,1761604605.0234222
125,124,124,124,124,124,124,124,0,1761604605.0234268
125,124,124,124,124,124,124,124,0,1761604605.023431
125,124,124,124,124,124,124,124,0,1761604605.0234358
125,124,124,124,124,124,124,124,0,1761604605.0234408
125,124,124,124,124,124,124,124,0,1761604605.063819
125,124,124,124,124,124,124,124,0,1761604605.063827
125,125,124,124,124,124,124,124,0,1761604605.063832
125,125,124,124,124,124,124,125,0,1761604605.0638373
125,125,125,124,123,124,124,125,0,1761604605.0638418
125,125,125,124,123,124,124,124,0,1761604605.0638466
125,124,124,124,123,124,124,124,0,1761604605.0638514
125,124,124,124,123,124,124,124,0,1761604605.063856
125,124,124,124,123,124,124,124,0,1761604605.0638604
125,124,124,124,123,124,124,124,0,1761604605.0638652
126,124,124,124,124,124,124,125,0,1761604605.0638697
126,125,125,124,124,124,124,125,0,1761604605.0638742
125,125,124,124,124,125,124,124,0,1761604605.063879
125,125,124,124,124,124,124,124,0,1761604605.0638835
125,125,124,124,124,124,124,124,0,1761604605.063895
125,124,124,124,124,124,124,124,0,1761604605.063901
125,124,124,124,124,124,124,124,0,1761604605.084085
125,124,125,124,124,124,124,124,0,1761604605.0841112
125,124,125,124,124,124,124,124,0,1761604605.0841336
125,124,125,124,124,124,124,124,0,1761604605.0841694
125,124,125,125,124,124,124,124,0,1761604605.0841923
125,124,125,124,124,124,124,124,0,1761604605.084213
125,124,124,124,124,124,124,124,0,1761604605.0842345
125,124,124,124,123,124,124,124,0,1761604605.0842552
125,124,124,124,123,124,124,124,0,1761604605.0943716
125,124,125,124,123,124,124,124,0,1761604605.0943787
125,124,125,124,123,124,124,124,0,1761604605.0943844
125,124,125,124,123,124,124,125,0,1761604605.0943892
125,124,125,124,123,124,125,124,0,1761604605.0943942
125,124,124,124,123,124,125,124,0,1761604605.0943985
125,124,124,124,123,124,124,124,0,1761604605.094403
125,124,124,124,123,124,124,124,0,1761604605.0944083
125,124,124,124,123,124,124,124,0,1761604605.134784
125,125,124,124,123,124,124,124,0,1761604605.134791
125,125,124,124,124,124,124,124,0,1761604605.1347961
125,125,124,124,124,124,124,125,0,1761604605.134801
125,125,124,124,124,124,124,125,0,1761604605.1348057
125,124,124,124,123,124,124,125,0,1761604605.1348102
125,124,124,124,123,124,124,125,0,1761604605.1348147
125,124,124,124,123,124,124,124,0,1761604605.1348193
125,123,124,124,123,124,124,124,0,1761604605.134824
125,124,124,124,123,124,124,124,0,1761604605.1348286
125,124,124,124,124,124,124,124,0,1761604605.134833
125,125,124,124,124,124,124,124,0,1761604605.1348379
125,125,124,124,124,124,124,124,0,1761604605.1348422
125,125,125,124,124,124,124,125,0,1761604605.1348467
125,125,125,124,124,124,124,125,0,1761604605.1348512
125,125,125,124,123,124,124,125,0,1761604605.1348567
125,125,124,124,123,124,124,125,0,1761604605.1550314
125,124,124,124,123,124,124,124,0,1761604605.1550388
125,124,124,124,123,124,124,124,0,1761604605.155044
125,124,124,124,123,124,124,124,0,1761604605.1550488
125,124,124,124,123,124,125,124,0,1761604605.1550536
125,124,124,124,124,125,125,124,0,1761604605.1550584
125,124,124,124,124,124,124,124,0,1761604605.1550634
125,124,124,124,124,124,124,124,0,1761604605.155068
125,125,124,124,124,124,124,124,0,1761604605.1550725
125,124,124,124,124,124,124,124,0,1761604605.1550772
125,124,124,124,124,124,124,124,0,1761604605.1550817
125,124,124,124,124,124,124,124,0,1761604605.1550863
125,124,125,124,124,124,124,124,0,1761604605.155091
125,124,125,124,124,124,124,124,0,1761604605.1551018
125,124,124,124,124,124,124,124,0,1761604605.1551065
125,124,124,124,123,124,124,124,0,1761604605.1551118
125,124,124,124,123,124,124,124,0,1761604605.195495
125,124,124,124,123,124,124,124,0,1761604605.195522
125,124,124,124,123,124,124,124,0,1761604605.1955566
125,124,125,124,123,124,124,125,0,1761604605.2056725
125,124,125,124,124,124,124,125,0,1761604605.2056801
125,124,125,124,124,124,124,125,0,1761604605.2056851
125,124,125,124,124,124,124,125,0,1761604605.2056901
125,124,124,124,124,124,124,124,0,1761604605.2056947
125,124,124,124,124,124,124,124,0,1761604605.2056994
125,124,124,124,123,124,124,124,0,1761604605.2057037
125,124,124,124,123,123,124,124,0,1761604605.205708
125,124,124,124,123,124,124,124,0,1761604605.2057126
125,124,124,124,124,124,124,124,0,1761604605.2057173
125,124,124,124,124,124,124,124,0,1761604605.2057261
125,124,125,125,124,124,124,124,0,1761604605.2057316
125,124,124,124,124,124,124,124,0,1761604605.2057366
125,124,124,124,124,124,124,124,0,1761604605.246104
125,125,124,124,124,124,124,124,0,1761604605.2461114
125,125,124,123,123,124,124,124,0,1761604605.2461169
125,125,124,123,123,124,124,124,0,1761604605.246122
125,125,125,124,123,124,124,124,0,1761604605.246127
125,125,125,124,123,124,124,124,0,1761604605.2461314
125,124,124,124,124,124,124,124,0,1761604605.246136
125,124,124,124,124,124,124,124,0,1761604605.2461407
125,124,124,124,124,124,124,124,0,1761604605.2461452
125,124,124,124,124,124,124,124,0,1761604605.2461503
125,124,124,124,124,124,124,124,0,1761604605.2461548
125,124,124,124,124,124,124,124,0,1761604605.246159
125,124,124,124,124,124,124,124,0,1761604605.246164
125,124,124,124,124,124,124,124,0,1761604605.2461686
125,124,124,124,124,124,124,124,0,1761604605.2461731
125,125,124,124,124,124,124,124,0,1761604605.2461782
125,124,124,124,124,124,124,124,0,1761604605.2966676
125,124,124,124,123,124,124,124,0,1761604605.2966843
125,124,124,124,123,124,124,124,0,1761604605.2966888
125,124,124,124,123,124,124,124,0,1761604605.2967033
125,124,124,124,124,124,124,124,0,1761604605.2967074
125,124,124,124,124,124,124,124,0,1761604605.296711
125,124,124,124,124,124,124,124,0,1761604605.2967339
125,124,124,124,124,124,124,124,0,1761604605.2967398
125,124,124,124,124,124,124,124,0,1761604605.296744
125,124,124,124,124,124,124,124,0,1761604605.2967477
125,124,124,124,123,124,124,124,0,1761604605.2967525
125,124,124,124,123,124,124,124,0,1761604605.2967567
125,124,124,124,123,124,124,124,0,1761604605.2967615
125,124,124,124,124,124,124,124,0,1761604605.2967758
125,124,124,124,124,124,124,125,0,1761604605.2967813
125,124,124,124,124,124,124,125,0,1761604605.2967856
125,124,124,124,124,124,124,124,0,1761604605.3169916
125,124,124,124,124,124,124,124,0,1761604605.3169982
125,124,124,124,124,124,124,124,0,1761604605.3170033
125,124,124,124,124,124,123,124,0,1761604605.317008
125,124,124,124,124,124,124,124,0,1761604605.317023
125,124,124,124,124,124,124,124,0,1761604605.3170285
125,125,124,124,124,124,124,124,0,1761604605.3170333
126,125,124,124,124,124,124,124,0,1761604605.3170378
126,125,125,124,124,124,124,125,0,1761604605.3170424
126,124,124,124,124,124,124,125,0,1761604605.317047
125,124,124,124,124,124,124,125,0,1761604605.3170514
125,124,124,124,124,124,124,124,0,1761604605.317056
125,124,124,124,124,124,124,124,0,1761604605.3170607
125,124,124,124,123,124,124,124,0,1761604605.317065
125,124,124,124,124,124,124,124,0,1761604605.3170698
125,124,124,124,124,124,124,124,0,1761604605.3170836
125,124,124,124,124,124,124,124,0,1761604605.3574364
125,124,124,124,124,124,124,124,0,1761604605.3574436
125,124,124,124,124,124,124,124,0,1761604605.357449
125,124,124,124,123,124,124,124,0,1761604605.3574538
125,124,124,124,123,124,124,124,0,1761604605.3574586
125,124,124,123,123,124,124,124,0,1761604605.3574634
125,124,124,124,123,124,124,124,0,1761604605.357468
125,124,124,124,124,125,124,124,0,1761604605.3574724
125,124,124,124,124,125,124,124,0,1761604605.357477
125,124,124,124,124,124,124,124,0,1761604605.3574815
125,124,124,124,124,124,124,124,0,1761604605.357486
125,124,124,124,124,124,124,124,0,1761604605.3574908
125,124,124,124,124,124,124,124,0,1761604605.3575113
125,124,124,123,124,124,124,124,0,1761604605.357517
126,124,124,124,124,124,124,124,0,1761604605.3575218
125,125,124,124,124,124,124,124,0,1761604605.3575265
125,125,124,124,124,124,124,124,0,1761604605.3777275
125,125,124,124,124,124,124,124,0,1761604605.3777351
125,125,124,124,124,124,124,124,0,1761604605.3777404
125,124,124,124,124,124,124,124,0,1761604605.3777452
125,124,124,123,123,124,124,124,0,1761604605.377761
125,124,124,123,123,124,124,124,0,1761604605.387874
126,124,124,123,123,124,124,124,0,1761604605.3878813
126,124,124,124,123,124,124,124,0,1761604605.387886
125,124,124,124,124,125,124,124,0,1761604605.387891
125,124,125,124,124,124,124,125,0,1761604605.3878956
125,124,125,124,124,124,124,124,0,1761604605.3879004
125,124,125,124,124,124,124,124,0,1761604605.387905
125,124,124,124,124,124,124,124,0,1761604605.3879094
125,124,124,124,123,124,124,124,0,1761604605.387914
125,124,124,124,123,124,124,124,0,1761604605.3879187
125,124,124,124,123,124,124,124,0,1761604605.3879237
125,124,124,124,124,124,124,124,0,1761604605.4283044
125,124,125,125,124,124,124,124,0,1761604605.4283118
125,124,124,124,124,124,124,124,0,1761604605.4283166
125,124,124,124,124,124,124,125,0,1761604605.4283216
125,124,124,124,124,124,124,125,0,1761604605.428326
125,125,124,124,123,124,124,124,0,1761604605.4283304
125,124,124,124,123,124,124,124,0,1761604605.4283354
125,125,125,124,123,124,124,124,0,1761604605.4283462
125,124,124,124,124,124,124,124,0,1761604605.4283514
125,124,124,124,124,125,124,124,0,1761604605.4283562
125,124,124,124,124,125,124,124,0,1761604605.4283605
125,124,124,124,124,124,124,124,0,1761604605.428365
125,124,124,124,124,124,124,124,0,1761604605.4283698
125,124,124,124,124,124,124,124,0,1761604605.4283743
125,124,124,124,124,124,124,124,0,1761604605.4283788
125,124,124,124,124,124,124,124,0,1761604605.4283838
125,124,124,124,124,125,124,124,0,1761604605.448577
125,124,124,124,124,125,124,124,0,1761604605.4485838
125,124,124,124,124,124,124,124,0,1761604605.4485953
125,124,124,124,124,124,124,124,0,1761604605.4486005
125,124,124,124,123,124,124,124,0,1761604605.4486055
125,124,124,124,123,124,124,123,0,1761604605.4486103
125,124,124,124,124,124,124,124,0,1761604605.4486148
125,124,124,124,124,124,124,124,0,1761604605.4486685
125,124,124,124,124,124,124,124,0,1761604605.448674
125,124,124,124,124,124,124,124,0,1761604605.4486787
125,124,125,124,124,125,124,125,0,1761604605.4486833
125,124,125,124,123,124,124,125,0,1761604605.4486878
125,124,124,124,123,124,124,124,0,1761604605.4486926
125,124,124,124,123,124,124,124,0,1761604605.448697
125,124,124,124,123,124,124,124,0,1761604605.4487016
125,124,124,124,124,124,123,124,0,1761604605.448707
125,124,124,124,124,124,124,124,0,1761604605.4890966
125,125,124,124,124,124,124,124,0,1761604605.4891043
125,125,124,124,124,124,124,124,0,1761604605.4891098
125,125,125,124,124,124,124,124,0,1761604605.4891148
125,125,124,124,124,124,124,124,0,1761604605.4891195
125,125,124,124,123,124,124,124,0,1761604605.489124
125,124,124,124,123,124,124,124,0,1761604605.4891286
125,123,124,124,123,124,124,124,0,1761604605.4891338
125,123,124,124,124,124,124,124,0,1761604605.4891386
125,123,124,125,123,124,124,124,0,1761604605.4992516
125,123,124,125,124,124,124,124,0,1761604605.499259
125,124,124,125,124,124,124,124,0,1761604605.4992638
125,124,125,124,124,124,124,124,0,1761604605.4992685
125,124,124,124,124,124,123,124,0,1761604605.4992778
125,124,124,124,124,124,123,124,0,1761604605.4992828
125,124,124,124,124,124,123,124,0,1761604605.499288
125,124,124,124,124,124,123,124,0,1761604605.5194833
126,124,124,124,124,124,124,124,0,1761604605.5194905
125,124,124,124,124,124,124,124,0,1761604605.5194957
125,124,125,124,124,124,124,124,0,1761604605.5195007
125,124,124,124,124,124,124,124,0,1761604605.5195055
125,124,124,124,124,124,124,124,0,1761604605.5195105
125,124,124,124,124,124,124,124,0,1761604605.519515
125,124,124,124,123,124,124,124,0,1761604605.51952
125,124,124,124,123,124,124,124,0,1761604605.5195246
125,124,124,124,124,124,124,124,0,1761604605.519529
125,124,125,124,124,124,124,124,0,1761604605.519539
125,125,125,124,124,124,124,124,0,1761604605.5195444
125,125,125,124,124,124,124,124,0,1761604605.5195491
125,124,124,124,124,124,124,124,0,1761604605.5195534
125,124,124,124,124,124,124,124,0,1761604605.5195584
125,124,124,123,123,124,124,124,0,1761604605.5195634
125,124,124,124,123,124,124,124,0,1761604605.5599353
125,124,124,124,123,124,124,124,0,1761604605.5599422
125,124,124,124,124,124,124,124,0,1761604605.559947
125,124,124,124,123,124,124,125,0,1761604605.5599518
125,124,124,124,124,124,124,125,0,1761604605.5599563
125,124,124,124,124,124,124,125,0,1761604605.559961
125,124,124,124,124,124,124,124,0,1761604605.5599658
125,124,124,124,123,124,124,124,0,1761604605.5599704
125,124,124,124,123,124,124,124,0,1761604605.559975
125,124,124,124,123,124,124,124,0,1761604605.5599794
125,124,124,124,123,124,124,124,0,1761604605.559984
125,124,124,124,123,124,124,124,0,1761604605.5599885
125,124,124,124,124,125,124,124,0,1761604605.5600064
125,125,124,124,124,125,124,124,0,1761604605.5600116
125,125,124,124,124,125,124,124,0,1761604605.5600162
125,125,124,124,124,125,124,123,0,1761604605.560022
125,125,124,124,124,124,123,123,0,1761604605.5801988
125,124,124,124,123,124,124,124,0,1761604605.5903122
125,124,124,124,123,124,124,124,0,1761604605.5903194
125,124,125,124,123,124,124,124,0,1761604605.5903244
125,124,125,124,124,124,124,124,0,1761604605.5903294
125,124,125,124,124,124,124,125,0,1761604605.590334
125,124,125,124,124,124,124,124,0,1761604605.5903385
125,124,125,124,124,124,124,124,0,1761604605.5903432
125,124,125,124,124,124,124,124,0,1761604605.5903478
125,124,125,124,123,124,124,124,0,1761604605.590352
125,124,125,124,123,124,124,124,0,1761604605.5903568
125,124,125,124,123,124,124,124,0,1761604605.5903614
125,124,125,124,123,124,124,124,0,1761604605.590366
125,124,125,124,123,124,125,124,0,1761604605.590383
125,124,124,124,124,124,124,124,0,1761604605.5903883
125,124,124,124,123,124,124,124,0,1761604605.5903924
125,124,124,124,123,124,124,124,0,1761604605.6308057
125,124,124,123,123,124,124,124,0,1761604605.6308131
125,124,124,123,123,124,124,124,0,1761604605.6308186
125,124,124,124,123,124,124,124,0,1761604605.6308234
125,124,124,124,123,124,124,124,0,1761604605.6308281
125,124,124,124,124,124,124,124,0,1761604605.6308327
125,124,124,124,124,124,124,125,0,1761604605.6308374
125,124,124,124,124,124,124,125,0,1761604605.6308422
125,124,124,124,124,124,124,124,0,1761604605.630847
125,125,125,124,123,124,124,124,0,1761604605.6308515
125,124,124,124,123,124,124,124,0,1761604605.6308563
125,124,124,124,123,124,124,124,0,1761604605.6308608
125,124,124,124,123,124,124,124,0,1761604605.6308656
125,124,124,124,123,124,124,124,0,1761604605.6308758
125,124,124,124,123,124,124,124,0,1761604605.6308832
125,124,125,124,124,124,124,124,0,1761604605.630889
125,124,124,124,124,124,124,124,0,1761604605.651086
125,124,124,124,124,124,124,124,0,1761604605.651093
125,124,124,124,124,124,124,124,0,1761604605.6510978
125,124,124,124,124,124,124,124,0,1761604605.6511028
125,124,124,124,124,124,124,124,0,1761604605.6511073
125,124,124,124,124,124,124,124,0,1761604605.6511118
125,125,124,124,124,124,124,124,0,1761604605.6511168
125,125,124,124,124,124,124,125,0,1761604605.6511216
125,125,124,124,124,124,124,124,0,1761604605.6511264
125,124,124,124,124,124,124,124,0,1761604605.651131
125,124,124,124,124,124,124,124,0,1761604605.6511357
125,124,124,124,123,124,124,124,0,1761604605.6511405
125,124,124,124,123,124,124,124,0,1761604605.651145
125,124,124,124,123,124,124,124,0,1761604605.6511495
125,124,124,124,123,124,124,124,0,1761604605.6511538
125,124,124,124,124,124,124,124,0,1761604605.6511593
125,124,124,124,124,124,124,124,0,1761604605.6915379
125,124,124,124,124,124,124,124,0,1761604605.691545
125,124,124,124,124,124,124,124,0,1761604605.6915503
125,124,124,124,123,124,124,124,0,1761604605.691555
125,124,124,124,123,124,124,124,0,1761604605.69156
125,124,124,124,123,124,124,124,0,1761604605.6915648
125,124,124,124,123,124,124,124,0,1761604605.6915693
125,124,124,124,123,124,124,124,0,1761604605.691574
125,124,124,124,123,124,124,124,0,1761604605.6915789
125,124,124,124,123,124,124,124,0,1761604605.6915834
125,124,124,124,123,124,124,124,0,1761604605.6915922
125,124,124,124,123,124,124,124,0,1761604605.6915975
125,124,124,124,123,124,124,124,0,1761604605.6916022
125,124,124,124,123,124,124,124,0,1761604605.7017076
125,124,124,124,124,124,124,124,0,1761604605.7017145
125,124,124,125,124,124,124,124,0,1761604605.7017195
125,124,125,124,124,124,124,124,0,1761604605.7219133
125,124,124,124,124,124,124,124,0,1761604605.7219203
125,124,124,124,124,124,124,124,0,1761604605.7219253
125,124,124,124,124,124,124,124,0,1761604605.72193
125,123,124,124,123,124,124,124,0,1761604605.7219348
125,123,124,124,123,124,124,124,0,1761604605.721939
125,124,124,124,123,124,124,124,0,1761604605.7219439
125,124,124,124,123,124,124,124,0,1761604605.7219484
125,124,124,124,123,124,124,124,0,1761604605.721953
125,124,124,124,124,124,124,124,0,1761604605.7219574
125,124,124,124,124,124,124,124,0,1761604605.721962
125,124,124,124,124,124,124,124,0,1761604605.7219665
125,124,124,124,124,124,124,124,0,1761604605.721971
125,124,124,124,124,124,124,124,0,1761604605.7219758
125,124,124,124,124,124,124,124,0,1761604605.72198
125,124,124,124,124,124,124,124,0,1761604605.7219853
125,124,124,124,124,124,124,124,0,1761604605.7623832
125,124,124,124,124,124,124,124,0,1761604605.762391
125,125,124,124,124,124,124,124,0,1761604605.762396
125,125,124,124,124,124,124,124,0,1761604605.762401
125,125,124,124,124,124,124,124,0,1761604605.7624056
125,125,124,124,124,124,124,124,0,1761604605.7624102
125,124,124,124,124,124,124,124,0,1761604605.762415
125,124,124,124,124,124,124,124,0,1761604605.7624195
125,124,124,124,124,124,124,124,0,1761604605.762424
125,124,124,125,124,124,124,124,0,1761604605.7624288
125,124,124,124,124,124,124,124,0,1761604605.7624333
125,124,124,124,124,124,124,124,0,1761604605.7624378
125,124,124,124,124,124,124,124,0,1761604605.7624443
125,124,124,124,124,124,124,124,0,1761604605.7624493
125,124,124,124,124,124,124,124,0,1761604605.7624538
125,124,124,124,124,124,124,124,0,1761604605.7624588
125,124,124,124,124,124,124,124,0,1761604605.7826269
125,124,125,124,124,124,124,124,0,1761604605.7826343
125,124,125,124,124,124,124,124,0,1761604605.7826393
125,124,125,124,124,124,124,124,0,1761604605.7826445
125,124,124,124,124,124,124,124,0,1761604605.79275
125,124,124,124,123,124,124,124,0,1761604605.792757
125,124,124,124,123,124,124,124,0,1761604605.792762
125,124,124,124,124,124,124,124,0,1761604605.7927668
125,124,124,124,124,124,124,124,0,1761604605.7927716
125,124,124,124,124,124,124,124,0,1761604605.7927759
125,124,124,124,124,124,124,124,0,1761604605.7927809
125,124,124,124,124,124,124,124,0,1761604605.7927854
125,124,124,124,124,124,124,124,0,1761604605.79279
125,124,124,124,124,124,124,124,0,1761604605.7927947
125,124,124,124,124,124,124,124,0,1761604605.7927992
125,124,124,124,123,124,124,124,0,1761604605.7928042
125,124,124,124,124,124,124,124,0,1761604605.8331897
125,124,124,124,124,124,124,124,0,1761604605.833197
125,124,124,124,124,125,124,124,0,1761604605.8332021
125,124,124,124,124,124,124,124,0,1761604605.8332071
125,124,124,124,124,124,124,124,0,1761604605.8332117
125,124,124,124,123,124,124,124,0,1761604605.8332162
125,124,124,124,123,124,124,124,0,1761604605.833221
125,124,124,124,123,124,124,124,0,1761604605.8332255
126,124,124,124,123,124,124,124,0,1761604605.8332298
125,124,124,124,123,124,124,124,0,1761604605.8332345
125,124,124,124,124,124,124,124,0,1761604605.833239
125,124,124,124,124,124,124,124,0,1761604605.8332434
125,124,124,124,124,124,124,124,0,1761604605.833248
125,124,124,124,124,124,124,124,0,1761604605.8332524
125,124,124,124,124,124,124,124,0,1761604605.833257
125,124,124,124,124,124,124,124,0,1761604605.833262
125,123,124,124,124,124,124,124,0,1761604605.8534436
125,124,125,124,124,124,124,124,0,1761604605.8534508
125,124,125,124,124,124,124,125,0,1761604605.8534558
125,125,125,124,124,124,124,125,0,1761604605.853467
125,125,124,124,124,124,124,124,0,1761604605.8534718
125,125,124,124,123,124,124,124,0,1761604605.8534763
125,125,124,124,123,124,124,124,0,1761604605.853481
125,124,124,124,123,124,124,124,0,1761604605.8534853
125,124,124,124,123,124,124,124,0,1761604605.85349
125,124,124,124,124,124,124,124,0,1761604605.8534946
125,124,125,124,124,124,124,124,0,1761604605.8534992
125,124,125,124,124,124,124,124,0,1761604605.8535037
125,124,125,124,124,124,124,125,0,1761604605.8535082
125,124,124,124,123,124,124,125,0,1761604605.853513
125,124,124,124,123,124,124,124,0,1761604605.8535175
125,124,124,124,123,124,124,124,0,1761604605.8535228
125,124,124,123,123,124,124,124,0,1761604605.8938878
125,124,124,124,124,124,124,124,0,1761604605.8938951
125,124,124,124,124,124,124,124,0,1761604605.8939004
125,124,124,124,124,124,124,124,0,1761604605.8939052
125,125,124,124,124,124,124,124,0,1761604605.8939097
125,125,124,125,124,124,124,124,0,1761604605.8939154
125,125,124,124,124,124,124,124,0,1761604605.904022
125,125,124,124,123,124,124,124,0,1761604605.904029
125,124,124,124,123,124,124,124,0,1761604605.9040341
125,124,124,124,123,124,124,124,0,1761604605.9040387
126,124,124,124,123,124,125,124,0,1761604605.9040437
125,124,124,124,123,124,125,124,0,1761604605.9040482
125,124,124,124,124,124,124,124,0,1761604605.9040587
125,125,124,124,124,124,124,124,0,1761604605.904064
125,125,124,124,124,124,124,124,0,1761604605.904069
125,125,124,124,124,124,124,124,0,1761604605.9040737
126,125,124,124,124,124,124,124,0,1761604605.9242682
125,124,124,124,124,124,124,124,0,1761604605.9242752
125,124,124,124,124,124,124,124,0,1761604605.9242802
125,124,124,124,124,124,124,124,0,1761604605.924285
125,124,124,124,124,124,124,124,0,1761604605.9242897
125,124,124,124,123,124,124,124,0,1761604605.9242947
125,124,124,124,123,124,123,124,0,1761604605.9242992
125,124,124,124,123,124,123,124,0,1761604605.9243035
125,125,124,124,123,124,123,124,0,1761604605.9243083
125,124,124,124,123,124,124,124,0,1761604605.9243128
126,124,124,124,124,125,124,124,0,1761604605.9243174
125,124,124,124,124,125,124,124,0,1761604605.9243221
125,124,125,124,124,125,124,124,0,1761604605.9243267
125,124,125,124,124,124,124,124,0,1761604605.9243312
125,124,124,124,124,124,124,124,0,1761604605.9243357
125,124,124,124,124,124,124,124,0,1761604605.9243407
125,124,124,124,124,124,124,124,0,1761604605.964709
125,124,124,124,123,124,123,124,0,1761604605.9647162
125,123,124,124,123,124,123,124,0,1761604605.9647214
125,124,125,124,124,124,124,124,0,1761604605.9647262
125,124,125,125,124,124,124,124,0,1761604605.964731
125,124,125,125,124,124,124,124,0,1761604605.9647355
125,125,124,124,124,124,124,124,0,1761604605.964746
125,125,124,124,124,124,124,124,0,1761604605.9647512
125,125,124,124,123,124,124,124,0,1761604605.9647558
125,125,124,124,123,124,124,124,0,1761604605.9647603
125,124,124,124,123,124,124,124,0,1761604605.964765
125,125,124,124,123,124,124,124,0,1761604605.9647698
125,125,124,124,123,124,124,124,0,1761604605.9647741
125,125,124,124,124,124,124,124,0,1761604605.9647787
125,125,124,124,124,125,124,124,0,1761604605.9647834
125,124,124,124,124,124,124,124,0,1761604605.9647884
125,124,124,124,124,124,124,124,0,1761604605.9950688
125,124,124,124,124,124,124,124,0,1761604605.9950798
125,124,124,124,123,124,124,124,0,1761604605.995088
125,124,124,124,123,124,124,124,0,1761604605.9950962
125,124,125,124,123,124,124,124,0,1761604605.9951046
125,125,125,124,123,124,125,125,0,1761604605.9951127
125,125,125,124,123,124,124,125,0,1761604605.995121
125,124,124,124,123,124,124,125,0,1761604605.9951289
125,124,124,123,123,124,124,124,0,1761604605.995137
125,124,124,123,123,124,124,124,0,1761604605.9951448
125,124,124,124,123,124,124,124,0,1761604605.995153
126,124,124,124,123,124,124,124,0,1761604605.9951608
126,124,124,124,123,124,124,124,0,1761604605.9951687
125,125,124,124,124,124,124,124,0,1761604605.9951766
125,125,124,124,124,124,124,124,0,1761604605.9951847
125,125,124,124,124,124,124,124,0,1761604605.9951942
125,125,124,124,124,124,124,124,0,1761604606.0355024
125,124,124,124,124,124,124,124,0,1761604606.0355139
125,124,124,124,124,124,124,124,0,1761604606.0355227
125,124,124,124,124,124,124,124,0,1761604606.0355313
125,124,124,124,124,124,124,124,0,1761604606.0355394
125,124,125,124,124,124,124,124,0,1761604606.0355477
125,125,125,124,124,124,124,124,0,1761604606.035556
125,125,124,124,124,124,124,124,0,1761604606.035564
125,125,124,124,124,124,124,124,0,1761604606.035572
125,125,124,124,124,124,124,124,0,1761604606.03558
125,124,124,124,124,124,124,124,0,1761604606.0356038
125,124,124,124,123,124,124,124,0,1761604606.0356135
125,123,125,124,123,124,124,124,0,1761604606.0356255
125,123,125,124,123,124,124,124,0,1761604606.035644
125,123,124,124,124,124,124,124,0,1761604606.0356522
125,123,124,124,123,125,124,124,0,1761604606.0356607
126,124,124,124,123,124,124,124,0,1761604606.055824
125,124,124,124,123,124,124,124,0,1761604606.0558345
125,125,124,124,123,124,124,124,0,1761604606.055843
125,125,124,124,123,124,124,124,0,1761604606.0558512
125,125,124,124,124,124,124,124,0,1761604606.0558596
125,125,124,124,124,124,124,124,0,1761604606.0558674
126,125,124,124,124,124,124,124,0,1761604606.0558755
126,125,124,124,124,124,124,125,0,1761604606.0558832
125,124,124,124,124,124,124,124,0,1761604606.0558913
125,124,124,124,124,124,124,124,0,1761604606.0558991
125,124,124,123,124,124,124,124,0,1761604606.0559132
125,123,124,123,123,124,124,124,0,1761604606.055922
125,123,124,124,123,124,124,124,0,1761604606.0559301
125,124,124,124,123,125,124,124,0,1761604606.055938
125,124,124,124,124,125,124,125,0,1761604606.0559459
125,124,124,125,124,124,124,125,0,1761604606.0559545
125,125,124,124,124,124,124,125,0,1761604606.0962672
125,124,124,124,124,124,124,124,0,1761604606.0962787
125,124,124,124,124,124,124,124,0,1761604606.0962875
125,124,124,124,123,124,124,124,0,1761604606.0962963
125,124,124,124,123,124,124,124,0,1761604606.096305
125,124,124,124,124,124,124,124,0,1761604606.0963132
125,124,124,124,124,124,124,124,0,1761604606.0963218
125,124,124,124,124,124,124,124,0,1761604606.0963302
125,124,124,124,124,125,124,124,0,1761604606.0963387
125,124,125,124,124,124,124,124,0,1761604606.096348
125,124,125,124,124,124,124,124,0,1761604606.0963566
125,124,125,124,124,124,124,124,0,1761604606.1064446
125,125,125,124,124,124,124,124,0,1761604606.1064537
125,125,125,124,123,124,124,124,0,1761604606.106462
125,124,125,124,123,124,124,124,0,1761604606.10647
125,125,125,124,123,124,124,124,0,1761604606.1064787
125,124,124,124,123,124,124,124,0,1761604606.1266415
125,124,124,124,123,124,124,124,0,1761604606.1266522
125,125,124,124,123,124,124,124,0,1761604606.1266606
125,125,124,124,123,124,124,124,0,1761604606.1266687
125,124,124,124,123,124,124,124,0,1761604606.126677
125,124,124,124,123,124,124,124,0,1761604606.1266847
125,124,124,124,123,124,124,124,0,1761604606.1266928
125,124,125,124,123,124,124,124,0,1761604606.1267009
