emg0,emg1,emg2,emg3,emg4,emg5,emg6,emg7,label,timestamp
127,125,125,125,124,125,125,125,0,1764984219.0224092
127,125,125,125,125,126,125,125,0,1764984219.0224183
127,125,125,125,125,125,125,125,0,1764984219.0224235
127,125,125,125,125,125,125,125,0,1764984219.0224283
127,125,125,125,125,125,125,125,0,1764984219.0224397
127,125,125,125,125,125,125,125,0,1764984219.022444
126,125,125,125,124,125,124,125,0,1764984219.0224483
126,125,125,125,124,125,124,125,0,1764984219.0224526
126,125,125,125,124,125,124,125,0,1764984219.0224566
126,125,125,125,124,125,124,125,0,1764984219.022461
126,125,125,125,124,125,125,125,0,1764984219.0224671
126,125,125,125,125,125,125,125,0,1764984219.0224712
126,125,125,125,125,125,125,125,0,1764984219.0224752
126,125,125,125,125,125,125,125,0,1764984219.02248
126,125,125,125,126,125,125,125,0,1764984219.022485
126,125,125,125,127,125,125,125,0,1764984219.022492
126,125,125,124,127,125,125,125,0,1764984219.0730274
126,125,125,124,126,125,125,125,0,1764984219.0730355
126,125,125,125,126,125,125,125,0,1764984219.073041
126,125,125,124,125,125,124,125,0,1764984219.0730457
126,125,124,124,124,125,124,125,0,1764984219.0730507
127,125,125,125,123,125,125,125,0,1764984219.0730555
127,125,125,124,122,125,125,125,0,1764984219.0730603
127,125,125,124,121,125,125,125,0,1764984219.0730655
127,125,125,124,121,125,125,125,0,1764984219.07307
127,125,125,124,122,125,125,125,0,1764984219.0730753
127,125,125,125,122,125,125,125,0,1764984219.0730798
126,125,125,125,123,125,125,125,0,1764984219.0730844
126,125,125,125,123,125,125,125,0,1764984219.0730894
126,125,125,125,124,125,125,125,0,1764984219.0730937
126,125,125,125,124,125,125,125,0,1764984219.0730982
126,125,125,124,125,125,125,125,0,1764984219.0731056
126,125,125,125,125,125,125,125,0,1764984219.0933323
127,125,125,125,126,125,125,125,0,1764984219.0933387
127,125,125,125,126,125,125,125,0,1764984219.0933437
127,125,125,125,126,125,125,125,0,1764984219.0933483
126,125,125,125,126,125,125,125,0,1764984219.0933533
126,125,125,125,126,125,124,124,0,1764984219.0933578
126,125,125,125,125,125,124,124,0,1764984219.0933626
126,125,125,125,124,125,124,124,0,1764984219.0933743
126,125,125,125,123,125,124,125,0,1764984219.0933793
126,125,125,125,122,125,125,125,0,1764984219.0933843
126,125,125,125,122,125,125,125,0,1764984219.0933888
126,125,125,125,123,125,125,125,0,1764984219.0933933
126,126,125,125,124,125,125,125,0,1764984219.093398
126,125,125,124,125,125,125,125,0,1764984219.0934024
126,125,125,125,125,125,125,125,0,1764984219.093407
126,125,125,125,125,125,125,125,0,1764984219.093417
126,125,125,125,125,125,124,125,0,1764984219.1135526
126,124,124,125,125,124,124,125,0,1764984219.113558
126,124,125,125,124,124,124,125,0,1764984219.113563
126,124,125,124,124,124,124,124,0,1764984219.1135678
125,125,125,124,125,125,124,124,0,1764984219.1135724
126,125,125,124,124,125,124,125,0,1764984219.1135774
126,125,125,125,124,125,125,125,0,1764984219.1135821
126,125,125,125,125,125,125,125,0,1764984219.1135864
126,126,125,125,126,125,125,125,0,1764984219.113591
127,125,125,125,125,125,125,125,0,1764984219.1135957
127,125,125,125,125,125,125,125,0,1764984219.1136
127,125,125,125,125,125,125,125,0,1764984219.1136045
126,125,125,125,125,125,124,125,0,1764984219.113609
126,125,125,124,124,125,124,125,0,1764984219.1136134
126,125,125,124,124,125,124,125,0,1764984219.1136227
126,125,125,124,123,125,125,125,0,1764984219.1136277
126,125,125,125,123,125,125,125,0,1764984219.164165
127,125,125,125,124,125,125,125,0,1764984219.1641731
127,125,125,125,125,125,125,125,0,1764984219.1641781
127,125,125,125,125,125,125,125,0,1764984219.164183
127,125,125,125,125,125,125,125,0,1764984219.1641948
126,125,125,125,124,125,125,125,0,1764984219.1642003
126,125,125,125,124,125,124,125,0,1764984219.164205
126,125,125,125,124,125,125,125,0,1764984219.1642098
126,125,125,125,124,125,125,125,0,1764984219.1642146
126,125,125,125,124,125,125,125,0,1764984219.1642191
126,125,125,125,125,125,125,125,0,1764984219.1642241
127,125,125,125,125,125,125,125,0,1764984219.1642292
127,125,125,125,125,125,125,125,0,1764984219.164234
127,125,125,125,124,125,125,125,0,1764984219.1642392
127,125,125,125,124,125,125,125,0,1764984219.164244
126,125,125,125,124,125,125,125,0,1764984219.1642551
126,125,125,125,124,125,125,125,0,1764984219.1845543
126,125,125,125,124,125,125,125,0,1764984219.1845584
126,125,125,125,125,125,125,125,0,1764984219.184561
126,125,125,125,125,125,125,125,0,1764984219.1845632
126,125,125,125,124,125,125,125,0,1764984219.184573
126,125,125,125,125,125,125,125,0,1764984219.1845756
126,125,125,125,124,125,125,125,0,1764984219.1845777
126,125,125,125,125,125,125,125,0,1764984219.18458
126,125,125,125,124,125,125,125,0,1764984219.1845827
127,125,125,125,125,125,125,125,0,1764984219.1845849
127,126,126,125,125,125,125,125,0,1764984219.1845872
126,125,126,125,125,125,125,125,0,1764984219.1845896
126,125,125,125,125,125,125,126,0,1764984219.1845915
126,125,125,125,125,125,125,125,0,1764984219.1845975
126,125,125,125,124,125,125,125,0,1764984219.1845999
126,125,125,125,124,125,125,125,0,1764984219.1846066
126,125,125,124,124,125,125,125,0,1764984219.2250347
127,125,125,125,124,125,125,125,0,1764984219.2250392
127,125,125,125,125,125,125,125,0,1764984219.2250419
127,125,126,125,125,125,125,125,0,1764984219.2250443
127,125,126,125,125,125,125,125,0,1764984219.2250466
127,125,125,125,125,125,125,125,0,1764984219.2250485
127,125,125,125,124,125,125,125,0,1764984219.225051
127,125,125,125,124,125,125,125,0,1764984219.225057
127,125,125,125,125,125,125,125,0,1764984219.225059
127,125,125,125,125,125,125,125,0,1764984219.2250614
127,125,125,125,125,125,125,125,0,1764984219.2250636
127,125,125,125,125,125,125,125,0,1764984219.225066
127,125,125,125,126,125,125,125,0,1764984219.225068
127,125,125,125,126,125,125,126,0,1764984219.225075
127,125,125,125,126,125,125,126,0,1764984219.2250774
126,125,125,125,125,125,125,126,0,1764984219.2351663
126,125,125,125,124,125,125,126,0,1764984219.2554324
126,125,125,125,123,125,124,125,0,1764984219.255437
126,125,125,125,122,125,124,125,0,1764984219.2554395
126,125,125,124,122,124,124,125,0,1764984219.255442
126,125,125,125,123,125,124,125,0,1764984219.2554445
126,125,125,125,124,125,124,125,0,1764984219.2554467
127,125,126,125,125,125,125,125,0,1764984219.255449
127,125,126,125,126,125,125,125,0,1764984219.2554514
126,125,125,125,126,125,125,125,0,1764984219.2554536
126,125,125,125,126,125,125,125,0,1764984219.2554557
126,125,125,125,125,125,125,125,0,1764984219.2554584
126,125,125,125,125,125,125,125,0,1764984219.2554646
126,125,125,125,124,125,125,125,0,1764984219.2554665
126,125,125,124,123,124,124,125,0,1764984219.2554684
126,125,125,124,123,124,124,125,0,1764984219.2554767
126,125,125,124,123,124,124,125,0,1764984219.2554796
126,125,125,124,123,125,125,125,0,1764984219.2758052
126,125,125,124,123,125,125,125,0,1764984219.2758095
127,125,125,125,124,125,125,125,0,1764984219.2758121
127,125,125,125,124,125,125,125,0,1764984219.2758148
127,125,125,125,124,125,125,125,0,1764984219.275821
127,125,125,125,125,125,125,125,0,1764984219.2758236
126,125,125,125,125,125,124,125,0,1764984219.2758262
126,125,125,125,125,125,124,125,0,1764984219.2758284
126,125,125,125,125,125,124,125,0,1764984219.2758307
126,125,125,124,125,125,124,125,0,1764984219.275833
126,125,125,124,125,125,125,125,0,1764984219.275835
126,125,125,125,125,125,125,125,0,1764984219.2758374
126,125,125,125,126,125,125,125,0,1764984219.2758398
126,125,125,125,125,125,125,125,0,1764984219.2758422
126,125,125,126,125,125,125,125,0,1764984219.2758443
126,125,125,125,125,125,125,125,0,1764984219.275847
126,125,125,125,124,125,125,125,0,1764984219.3162544
126,124,125,125,123,125,124,125,0,1764984219.3162582
126,124,125,125,123,125,124,125,0,1764984219.3162608
126,124,125,124,123,125,124,125,0,1764984219.3162632
126,124,125,124,123,125,124,125,0,1764984219.3162658
127,125,125,125,123,125,125,126,0,1764984219.316268
127,125,125,125,124,125,125,126,0,1764984219.3162704
127,125,125,125,124,125,125,126,0,1764984219.3162756
127,125,125,125,124,125,125,126,0,1764984219.316278
126,125,125,125,124,125,125,126,0,1764984219.3162806
126,125,125,125,125,125,125,125,0,1764984219.3162825
126,125,124,125,125,125,125,125,0,1764984219.316285
126,125,124,125,125,125,124,125,0,1764984219.3162873
126,125,124,125,125,125,124,124,0,1764984219.3162892
126,124,124,124,125,125,125,124,0,1764984219.3162916
126,124,125,124,125,125,124,124,0,1764984219.3162942
126,125,125,124,125,125,125,125,0,1764984219.3365433
127,125,125,124,124,125,125,125,0,1764984219.3365464
127,125,125,124,125,125,125,125,0,1764984219.3365488
126,125,125,125,124,125,125,125,0,1764984219.3365557
126,125,125,125,124,125,125,125,0,1764984219.336558
126,125,125,125,123,125,125,125,0,1764984219.3365605
126,125,125,124,123,125,125,125,0,1764984219.3365626
126,125,125,124,123,125,125,125,0,1764984219.3365648
126,125,125,124,123,125,125,125,0,1764984219.336567
126,125,125,124,124,125,125,125,0,1764984219.3365693
126,125,125,124,124,125,124,125,0,1764984219.3365715
126,125,125,125,124,125,125,125,0,1764984219.3365736
126,125,125,124,123,125,125,125,0,1764984219.336576
126,125,125,125,123,125,125,125,0,1764984219.3365786
126,125,125,125,123,125,125,125,0,1764984219.3365805
126,125,125,125,124,125,125,125,0,1764984219.3365831
126,125,125,125,124,125,125,125,0,1764984219.387034
126,125,125,125,125,125,125,125,0,1764984219.3870387
126,125,125,125,124,125,124,125,0,1764984219.3870416
126,125,125,125,124,125,125,125,0,1764984219.3870444
126,125,125,125,124,125,125,125,0,1764984219.3870466
126,125,125,125,124,125,125,125,0,1764984219.3870492
126,125,125,125,125,125,125,125,0,1764984219.3870516
126,125,125,125,126,125,125,125,0,1764984219.3870537
127,125,125,125,127,125,125,125,0,1764984219.3870564
126,125,125,125,127,125,125,125,0,1764984219.3870587
126,125,125,125,126,125,125,125,0,1764984219.3870609
126,125,125,124,125,125,124,125,0,1764984219.3870633
126,125,125,125,124,125,124,125,0,1764984219.3870656
126,125,125,125,123,125,124,125,0,1764984219.3870678
126,125,125,125,123,125,124,125,0,1764984219.38707
126,125,125,125,123,125,124,125,0,1764984219.3870778
127,125,125,125,123,125,125,125,0,1764984219.4072576
127,125,125,125,122,125,125,125,0,1764984219.4072604
127,125,125,125,123,125,125,125,0,1764984219.407263
127,125,125,124,123,125,125,125,0,1764984219.407269
127,125,125,124,123,125,125,125,0,1764984219.4072714
127,125,125,124,124,125,125,125,0,1764984219.4072738
126,125,125,124,125,125,124,125,0,1764984219.4072764
126,125,125,124,126,125,125,125,0,1764984219.4072783
126,125,125,125,126,125,125,125,0,1764984219.4072807
126,125,125,125,125,125,125,125,0,1764984219.4072835
126,125,125,125,125,125,125,125,0,1764984219.4072857
126,125,125,125,125,125,125,125,0,1764984219.4072878
126,125,125,125,124,125,125,125,0,1764984219.4072902
126,125,125,125,124,125,125,125,0,1764984219.4072924
126,125,125,125,125,125,125,125,0,1764984219.4073002
126,125,125,125,125,125,125,125,0,1764984219.407303
126,125,125,125,125,125,125,125,0,1764984219.457815
126,125,125,125,125,124,124,124,0,1764984219.4578197
126,125,124,125,126,124,124,124,0,1764984219.4578216
126,125,124,124,126,124,124,124,0,1764984219.4578238
126,124,124,124,126,124,124,124,0,1764984219.4578254
126,124,125,124,125,125,125,125,0,1764984219.4578273
126,125,125,124,125,125,125,125,0,1764984219.4578345
126,125,125,124,124,125,125,125,0,1764984219.4578364
127,125,125,125,124,125,125,125,0,1764984219.457838
127,125,125,125,124,125,125,125,0,1764984219.45784
127,125,125,125,124,125,125,125,0,1764984219.4578416
126,125,125,125,124,125,124,125,0,1764984219.4578433
126,125,124,125,123,124,124,124,0,1764984219.457845
126,125,124,125,123,124,124,124,0,1764984219.457847
126,125,124,125,123,124,124,124,0,1764984219.4578488
126,125,124,125,123,125,124,124,0,1764984219.457851
126,125,125,125,123,125,125,125,0,1764984219.4780536
127,125,125,125,124,125,125,125,0,1764984219.4780583
126,125,125,125,125,125,125,125,0,1764984219.4780607
126,125,125,125,125,125,125,125,0,1764984219.4780636
126,125,125,125,125,125,125,125,0,1764984219.478066
126,125,125,125,124,125,125,125,0,1764984219.4780686
126,125,125,125,123,125,125,125,0,1764984219.478076
126,125,125,124,123,125,125,125,0,1764984219.4780784
126,125,125,124,123,125,125,125,0,1764984219.4780807
126,125,125,124,122,125,125,125,0,1764984219.4780831
126,125,125,124,123,125,125,125,0,1764984219.4780855
126,125,125,124,123,125,125,125,0,1764984219.478088
127,125,125,125,123,125,125,125,0,1764984219.4780903
127,125,125,125,124,125,125,125,0,1764984219.4780924
127,125,125,125,125,125,125,125,0,1764984219.4780948
127,125,125,125,127,125,125,125,0,1764984219.4781015
127,125,125,125,127,125,125,125,0,1764984219.4982996
126,125,125,125,128,124,125,125,0,1764984219.4983034
126,125,125,125,127,124,125,125,0,1764984219.498306
126,125,125,125,125,124,125,125,0,1764984219.4983084
126,125,125,124,123,124,125,125,0,1764984219.4983106
126,125,125,124,122,124,124,125,0,1764984219.498313
126,125,125,125,122,125,125,125,0,1764984219.4983153
126,125,125,125,122,125,125,125,0,1764984219.4983172
126,125,125,125,123,125,125,125,0,1764984219.4983196
126,125,125,125,124,125,125,126,0,1764984219.498322
126,125,125,125,125,126,125,125,0,1764984219.4983263
126,125,125,125,125,125,125,125,0,1764984219.498329
126,125,125,125,124,125,125,125,0,1764984219.4983346
126,125,125,125,125,125,125,125,0,1764984219.4983373
126,125,125,125,125,125,125,125,0,1764984219.4983397
126,125,125,125,124,125,125,125,0,1764984219.498343
126,125,125,125,125,125,124,125,0,1764984219.5487428
126,125,125,125,125,125,125,125,0,1764984219.5487466
126,125,125,125,125,125,125,125,0,1764984219.5487487
126,125,125,125,125,125,125,125,0,1764984219.5487576
126,125,125,125,125,125,125,125,0,1764984219.5487595
127,125,125,125,124,125,125,125,0,1764984219.5487661
126,125,125,125,124,125,125,125,0,1764984219.5487685
126,124,124,125,123,124,124,125,0,1764984219.5487711
126,124,124,125,124,124,125,125,0,1764984219.5487733
126,124,125,125,124,124,124,125,0,1764984219.5487757
126,124,125,125,125,124,124,125,0,1764984219.5487797
126,125,125,125,125,125,125,125,0,1764984219.5487819
127,125,125,125,126,125,125,125,0,1764984219.548784
127,125,125,125,125,125,125,125,0,1764984219.5487864
127,125,125,125,125,125,125,125,0,1764984219.5487888
127,125,125,125,123,125,125,125,0,1764984219.5487914
127,125,125,125,123,125,125,125,0,1764984219.5689657
126,125,125,125,123,125,125,125,0,1764984219.5689688
126,125,125,125,123,124,125,125,0,1764984219.568971
126,125,125,125,124,124,125,125,0,1764984219.5689733
126,125,125,125,125,125,125,125,0,1764984219.5689757
126,125,125,124,124,125,124,125,0,1764984219.5689778
127,125,125,124,124,125,125,125,0,1764984219.5689802
127,125,125,124,125,125,125,125,0,1764984219.5689824
127,125,125,124,124,125,125,125,0,1764984219.5689845
127,125,125,124,124,125,125,125,0,1764984219.568992
127,125,125,124,123,125,125,125,0,1764984219.5689945
127,125,125,125,123,125,125,125,0,1764984219.5689967
126,125,125,124,123,125,125,125,0,1764984219.5689988
126,125,124,125,123,125,125,125,0,1764984219.5690012
126,125,125,125,123,125,125,125,0,1764984219.5690036
126,125,125,125,124,125,125,125,0,1764984219.5690064
126,125,125,125,125,125,125,125,0,1764984219.6093333
127,125,125,125,125,125,125,125,0,1764984219.609337
127,125,125,125,125,125,125,125,0,1764984219.6093397
127,125,125,125,125,125,125,125,0,1764984219.6093419
127,125,125,125,126,125,125,125,0,1764984219.6093442
127,125,125,125,125,125,125,125,0,1764984219.6093466
127,125,125,125,125,125,125,125,0,1764984219.6093485
127,125,125,125,126,125,125,125,0,1764984219.609351
127,125,125,125,125,125,125,125,0,1764984219.609353
127,125,125,125,125,125,125,125,0,1764984219.6093552
127,125,125,125,126,125,125,125,0,1764984219.6093574
127,125,125,125,127,125,125,125,0,1764984219.6093595
127,125,125,125,127,125,125,125,0,1764984219.6093616
127,125,125,125,126,125,125,125,0,1764984219.609364
126,125,125,125,124,125,125,125,0,1764984219.609366
126,125,125,125,122,125,125,125,0,1764984219.6093729
126,125,125,125,122,125,125,125,0,1764984219.6294978
126,125,125,125,121,124,125,125,0,1764984219.6295009
126,124,125,125,122,124,125,125,0,1764984219.6295028
126,124,125,125,123,125,125,125,0,1764984219.6295044
126,124,125,125,124,125,124,125,0,1764984219.6295078
126,125,125,125,125,125,124,125,0,1764984219.6295102
126,125,125,125,125,125,125,125,0,1764984219.6295123
126,125,125,125,126,125,125,125,0,1764984219.6295147
126,125,125,125,126,125,125,125,0,1764984219.6295168
126,125,125,125,125,125,125,125,0,1764984219.629519
126,125,125,125,124,125,125,125,0,1764984219.6295216
126,125,125,125,125,125,124,125,0,1764984219.6295815
126,125,124,125,124,125,124,125,0,1764984219.6295881
126,125,124,125,124,125,124,125,0,1764984219.6295905
126,125,124,125,124,125,124,125,0,1764984219.6396685
126,125,124,124,125,125,124,125,0,1764984219.6396723
126,125,125,125,124,125,125,125,0,1764984219.680045
127,125,125,125,124,125,125,125,0,1764984219.6800482
127,125,125,125,124,125,125,125,0,1764984219.6800504
127,125,125,125,125,125,125,125,0,1764984219.6800563
127,125,125,125,125,125,125,125,0,1764984219.6800587
127,125,125,125,125,125,125,125,0,1764984219.680061
126,125,125,125,125,125,124,125,0,1764984219.6800635
126,125,125,124,124,125,124,125,0,1764984219.6800659
126,125,124,124,123,125,124,125,0,1764984219.6800683
126,125,125,124,124,125,124,125,0,1764984219.6800704
126,125,125,124,124,125,124,125,0,1764984219.6800728
126,125,125,124,124,125,125,125,0,1764984219.680075
126,125,125,125,126,125,125,125,0,1764984219.6800773
127,125,126,125,126,125,125,125,0,1764984219.6800797
127,125,126,125,125,125,125,125,0,1764984219.6800816
127,125,126,125,124,125,125,125,0,1764984219.6800842
126,125,126,125,124,125,125,125,0,1764984219.7001975
126,125,125,125,123,125,124,125,0,1764984219.7002
126,125,125,125,123,125,125,125,0,1764984219.7002025
126,125,125,125,124,125,125,125,0,1764984219.7002046
126,125,125,125,124,125,125,125,0,1764984219.7002068
126,125,125,125,124,125,125,125,0,1764984219.7002091
127,125,125,125,125,125,125,125,0,1764984219.7002115
127,125,125,125,125,125,125,125,0,1764984219.7002137
127,125,125,125,124,125,125,125,0,1764984219.7002158
127,125,125,125,124,125,125,125,0,1764984219.7002182
127,125,125,125,123,125,125,125,0,1764984219.7002208
126,125,125,125,124,125,124,125,0,1764984219.7002234
126,125,125,125,125,125,125,125,0,1764984219.7002258
126,125,125,125,125,125,125,125,0,1764984219.7002282
126,125,125,125,126,125,125,125,0,1764984219.7002304
126,125,125,124,127,125,125,125,0,1764984219.7002327
126,125,125,125,126,125,125,125,0,1764984219.7203932
126,125,125,125,126,125,125,125,0,1764984219.7203994
126,125,125,125,125,125,125,125,0,1764984219.7204018
126,125,125,125,124,125,125,125,0,1764984219.7204037
126,125,125,125,123,125,125,125,0,1764984219.720406
127,125,125,125,123,125,125,125,0,1764984219.7204082
126,125,125,125,123,125,125,125,0,1764984219.7204103
126,125,125,125,123,125,125,125,0,1764984219.7204127
126,125,125,125,123,125,125,125,0,1764984219.7204149
126,125,125,125,123,125,125,125,0,1764984219.7204173
126,124,125,125,123,125,125,125,0,1764984219.7204194
126,125,125,125,124,125,125,126,0,1764984219.7204213
126,125,125,125,125,125,125,126,0,1764984219.7204237
126,125,125,125,125,125,125,126,0,1764984219.720426
126,125,125,125,125,125,125,125,0,1764984219.720428
127,125,125,125,126,125,125,125,0,1764984219.7204385
126,125,125,125,126,125,125,125,0,1764984219.770844
126,124,124,125,125,125,124,125,0,1764984219.7708483
126,124,124,125,124,125,124,124,0,1764984219.770851
126,124,124,125,123,124,125,124,0,1764984219.770853
126,124,124,124,122,124,125,125,0,1764984219.7708554
126,125,125,124,123,125,125,125,0,1764984219.7708578
127,125,125,124,124,125,125,125,0,1764984219.7708597
127,125,125,124,125,125,125,125,0,1764984219.7708623
127,125,125,124,126,125,125,125,0,1764984219.7708645
126,125,125,124,126,125,125,125,0,1764984219.7708666
126,125,125,125,125,125,125,125,0,1764984219.7708688
126,125,125,125,125,125,125,125,0,1764984219.770871
126,125,125,125,124,125,125,125,0,1764984219.7708776
126,125,125,125,124,125,125,125,0,1764984219.77088
126,125,125,125,124,125,125,125,0,1764984219.7708824
126,125,125,125,124,125,125,125,0,1764984219.7708855
127,125,125,125,123,125,125,125,0,1764984219.7910426
127,125,125,125,123,125,125,125,0,1764984219.7910454
126,125,125,125,124,125,125,125,0,1764984219.7910476
126,125,125,125,124,125,125,125,0,1764984219.791054
126,125,125,125,125,125,125,125,0,1764984219.7910564
126,125,125,125,126,125,125,125,0,1764984219.791059
126,125,125,125,127,125,125,125,0,1764984219.7910612
126,125,125,125,127,125,124,125,0,1764984219.7910635
126,125,125,124,126,125,124,125,0,1764984219.791066
126,125,124,124,126,125,125,125,0,1764984219.791068
126,124,124,125,125,125,125,125,0,1764984219.7910702
126,124,124,125,125,125,125,125,0,1764984219.7910726
127,125,125,125,124,125,125,125,0,1764984219.7910748
127,125,125,126,125,125,125,125,0,1764984219.7910771
127,125,125,126,125,125,125,125,0,1764984219.7910795
127,125,125,125,124,125,125,125,0,1764984219.7910817
127,125,125,125,124,125,125,125,0,1764984219.8416195
126,125,125,125,125,125,125,125,0,1764984219.841624
126,125,125,124,124,125,125,125,0,1764984219.8416324
126,124,125,124,124,125,124,125,0,1764984219.841635
126,125,125,124,124,125,124,125,0,1764984219.8416378
126,125,125,124,123,125,124,125,0,1764984219.8416467
126,125,125,125,124,125,125,125,0,1764984219.8416493
126,125,125,125,125,125,125,125,0,1764984219.8416524
127,125,125,125,126,125,125,125,0,1764984219.8416624
127,125,125,125,126,125,125,125,0,1764984219.841665
127,125,125,125,127,125,125,125,0,1764984219.8416677
127,125,125,125,126,125,125,125,0,1764984219.841673
126,125,125,125,124,125,124,125,0,1764984219.8416753
126,125,125,124,124,125,124,125,0,1764984219.8416777
126,125,125,125,123,124,124,125,0,1764984219.84168
126,125,125,125,123,124,124,125,0,1764984219.8416865
126,125,125,125,122,125,124,125,0,1764984219.8620079
126,125,125,125,123,125,125,125,0,1764984219.8620121
126,125,125,125,123,125,125,125,0,1764984219.8620205
126,125,125,125,124,125,125,125,0,1764984219.8620234
126,125,125,125,124,125,125,125,0,1764984219.862026
126,125,125,125,124,125,125,125,0,1764984219.8620284
126,125,125,125,124,125,125,125,0,1764984219.8620307
126,125,125,125,123,125,125,125,0,1764984219.8620331
126,125,125,125,123,125,125,125,0,1764984219.8620358
126,124,125,125,123,125,125,125,0,1764984219.8620384
126,124,125,125,124,125,125,125,0,1764984219.8620405
126,124,125,125,125,125,125,125,0,1764984219.8620427
127,125,125,125,127,125,125,125,0,1764984219.8620448
126,125,125,125,127,125,125,125,0,1764984219.8620472
126,125,125,125,128,125,125,125,0,1764984219.8620493
126,125,125,125,128,125,125,125,0,1764984219.8620517
126,125,125,125,127,125,125,125,0,1764984219.9025161
126,125,125,125,126,125,125,125,0,1764984219.9025204
126,125,124,125,125,125,124,125,0,1764984219.9025228
126,125,124,124,124,125,124,125,0,1764984219.9025252
126,125,124,125,124,125,124,125,0,1764984219.9025276
126,125,125,125,124,125,124,125,0,1764984219.9025297
126,125,125,125,124,125,124,125,0,1764984219.902532
127,125,125,125,124,125,125,125,0,1764984219.9025345
127,125,125,124,124,125,125,125,0,1764984219.9025364
127,125,125,124,124,125,125,125,0,1764984219.9025388
126,125,125,124,125,125,125,125,0,1764984219.9025412
126,125,125,125,124,125,125,125,0,1764984219.9025428
126,125,124,125,124,125,124,125,0,1764984219.9025452
126,124,124,125,124,125,124,125,0,1764984219.9025474
126,124,124,125,124,125,125,125,0,1764984219.9025545
126,125,125,125,123,125,125,125,0,1764984219.9025571
126,125,125,125,124,125,125,125,0,1764984219.9228797
127,125,125,125,124,125,125,125,0,1764984219.9228845
127,125,125,125,125,125,125,125,0,1764984219.9228868
127,125,125,125,124,125,125,125,0,1764984219.9228897
127,125,125,125,124,125,125,125,0,1764984219.9228923
127,125,125,125,124,125,125,125,0,1764984219.922895
127,125,125,125,124,125,125,125,0,1764984219.922897
126,125,125,125,124,125,124,125,0,1764984219.9228997
126,125,125,124,123,125,125,125,0,1764984219.922902
126,125,125,125,123,125,125,125,0,1764984219.9229045
126,125,125,125,124,125,125,125,0,1764984219.9229069
126,125,125,125,123,125,125,125,0,1764984219.9229093
127,125,125,125,124,125,125,125,0,1764984219.9229114
127,125,125,125,124,125,125,125,0,1764984219.9229136
127,125,125,125,125,125,125,125,0,1764984219.922916
126,125,125,125,125,125,125,125,0,1764984219.9229183
126,125,125,125,125,125,125,125,0,1764984219.9533062
126,125,125,124,126,125,124,125,0,1764984219.9533105
126,125,125,124,125,125,124,125,0,1764984219.9533134
126,125,125,124,125,125,124,125,0,1764984219.9533157
126,125,125,125,124,125,124,125,0,1764984219.9533184
126,125,125,125,124,125,124,125,0,1764984219.953321
127,125,125,125,124,125,125,125,0,1764984219.9533331
127,125,125,125,124,125,125,125,0,1764984219.9533358
127,125,125,125,124,125,125,125,0,1764984219.9533381
126,125,125,125,124,125,125,125,0,1764984219.9533405
126,125,125,125,124,125,125,126,0,1764984219.9533427
126,125,125,125,125,125,125,126,0,1764984219.953345
126,125,125,125,125,125,125,125,0,1764984219.9533477
126,125,125,125,125,125,125,125,0,1764984219.9533498
126,125,125,125,125,125,125,125,0,1764984219.9533522
126,125,125,125,125,125,125,125,0,1764984219.9533548
126,125,125,124,124,125,124,125,0,1764984219.993643
127,125,125,125,124,125,125,125,0,1764984219.9936607
127,125,125,125,123,125,125,125,0,1764984219.9936635
127,125,125,125,123,125,125,125,0,1764984219.993666
126,125,125,125,123,125,125,125,0,1764984219.9936683
126,125,125,125,125,125,125,125,0,1764984219.9936707
126,125,125,125,125,125,125,125,0,1764984219.9936774
126,124,125,125,126,124,124,125,0,1764984219.9936795
126,124,125,124,126,124,125,125,0,1764984219.993682
126,124,125,124,125,124,125,125,0,1764984219.9936843
126,124,125,124,125,124,125,125,0,1764984219.993686
126,125,125,125,124,125,125,125,0,1764984219.993688
126,125,125,125,124,125,125,125,0,1764984219.9936903
126,125,125,125,123,125,125,125,0,1764984219.9936924
126,125,125,125,123,125,125,125,0,1764984219.9936948
126,125,125,125,123,125,125,125,0,1764984219.993697
126,125,125,125,123,125,125,125,0,1764984220.0139706
126,125,125,125,123,125,125,125,0,1764984220.0139747
126,125,125,125,124,125,125,125,0,1764984220.0139775
126,125,125,125,124,125,124,125,0,1764984220.01398
126,125,125,125,123,125,124,125,0,1764984220.0139823
126,125,125,124,123,125,124,125,0,1764984220.0139847
126,125,125,125,124,125,125,125,0,1764984220.013987
126,125,125,125,125,125,125,125,0,1764984220.0139892
126,125,125,125,126,125,125,125,0,1764984220.0139916
126,125,125,125,126,125,125,125,0,1764984220.0139937
126,125,125,125,126,125,125,125,0,1764984220.0139961
126,125,125,124,125,125,125,125,0,1764984220.013998
126,125,125,124,125,125,125,125,0,1764984220.0140007
126,125,125,124,124,125,125,126,0,1764984220.014009
126,125,125,125,123,125,125,126,0,1764984220.0140114
126,125,125,125,123,125,125,125,0,1764984220.0140197
127,125,125,125,124,125,125,125,0,1764984220.0749042
127,125,125,125,123,125,125,125,0,1764984220.0749087
127,125,125,125,124,125,125,125,0,1764984220.074911
126,125,125,125,124,125,125,125,0,1764984220.085077
126,125,125,125,124,125,125,125,0,1764984220.085081
126,125,125,125,124,125,125,125,0,1764984220.0850837
126,125,125,125,124,125,125,125,0,1764984220.0850859
126,125,125,124,124,125,125,125,0,1764984220.0850883
126,125,125,124,124,125,125,125,0,1764984220.085094
126,125,125,124,124,125,125,125,0,1764984220.0850964
126,125,125,124,124,125,125,125,0,1764984220.0850987
126,125,125,124,125,125,125,125,0,1764984220.085101
127,125,125,125,126,125,125,125,0,1764984220.085103
127,125,125,125,126,125,125,125,0,1764984220.0851052
127,125,125,124,126,125,125,125,0,1764984220.085107
127,125,125,125,125,125,125,125,0,1764984220.0851097
127,125,125,125,124,125,125,125,0,1764984220.105433
127,125,125,125,124,125,125,125,0,1764984220.1054373
127,125,125,125,123,125,125,125,0,1764984220.10544
127,125,125,125,123,125,125,125,0,1764984220.1054423
127,125,125,125,124,125,125,125,0,1764984220.1054447
127,125,125,125,124,125,125,125,0,1764984220.105447
127,125,125,125,124,125,125,125,0,1764984220.1054494
126,125,125,125,124,125,125,125,0,1764984220.1054516
126,125,125,125,125,125,125,125,0,1764984220.1054537
126,125,125,125,125,125,125,125,0,1764984220.1054564
126,125,125,125,125,125,125,126,0,1764984220.1054585
126,125,125,124,125,124,124,125,0,1764984220.1054604
126,124,125,124,125,124,124,125,0,1764984220.1054626
126,124,125,124,125,125,124,125,0,1764984220.1054645
126,125,125,124,125,125,124,125,0,1764984220.1054666
126,125,125,124,124,125,124,125,0,1764984220.105469
126,125,125,124,124,125,125,125,0,1764984220.105471
126,125,125,124,123,125,125,125,0,1764984220.105473
126,125,125,125,123,125,125,125,0,1764984220.1054776
126,125,125,125,123,125,125,125,0,1764984220.10548
126,125,125,125,123,125,125,125,0,1764984220.105482
126,125,125,125,124,125,125,125,0,1764984220.1054893
127,125,125,125,125,125,125,125,0,1764984220.1054914
127,125,125,125,125,125,125,125,0,1764984220.1054938
126,125,125,125,124,125,125,125,0,1764984220.1054957
126,125,125,125,124,125,125,125,0,1764984220.1054978
126,125,125,125,124,125,125,125,0,1764984220.1055002
126,125,125,125,124,125,125,125,0,1764984220.1055024
126,125,125,125,124,125,125,125,0,1764984220.1055079
127,126,125,125,124,125,125,125,0,1764984220.1055102
127,125,125,124,124,125,125,125,0,1764984220.1055121
127,125,125,124,124,125,125,125,0,1764984220.105515
127,125,125,124,124,125,125,125,0,1764984220.1460752
127,125,125,124,124,125,125,125,0,1764984220.146079
126,125,124,124,125,125,124,125,0,1764984220.1460814
126,125,125,125,124,125,124,125,0,1764984220.1460838
126,125,125,125,124,125,124,125,0,1764984220.1460862
126,125,125,125,124,125,124,125,0,1764984220.1460884
126,125,125,125,124,125,124,125,0,1764984220.146091
126,125,125,125,125,125,125,125,0,1764984220.1460931
126,125,125,125,125,125,125,125,0,1764984220.1460953
126,125,125,125,125,125,125,125,0,1764984220.1460974
126,125,125,125,125,125,125,125,0,1764984220.1460996
126,125,125,125,125,125,125,125,0,1764984220.146105
126,125,125,125,124,125,125,125,0,1764984220.1461072
126,125,125,125,124,125,125,125,0,1764984220.1461093
126,125,125,125,124,125,125,125,0,1764984220.1461127
126,125,125,125,124,124,125,125,0,1764984220.146115
126,125,125,124,123,124,124,125,0,1764984220.176394
126,125,125,124,124,125,124,125,0,1764984220.1763978
127,125,125,124,124,125,125,125,0,1764984220.1764004
126,125,125,124,125,125,125,125,0,1764984220.1764026
126,125,125,124,125,125,125,125,0,1764984220.1764047
126,125,125,124,125,125,125,125,0,1764984220.176407
126,125,125,125,125,125,125,125,0,1764984220.1764092
126,125,125,125,125,125,124,125,0,1764984220.176415
126,125,125,125,124,125,125,125,0,1764984220.1764176
126,125,125,125,125,124,125,125,0,1764984220.1764195
126,125,125,125,125,124,125,125,0,1764984220.1764219
126,125,125,125,125,124,125,125,0,1764984220.176424
126,125,125,125,125,125,125,125,0,1764984220.176426
126,125,125,125,125,125,125,125,0,1764984220.1764283
126,125,125,125,124,125,125,125,0,1764984220.1764307
127,125,125,125,124,125,125,125,0,1764984220.176433
127,125,125,125,124,125,125,125,0,1764984220.2370656
126,125,125,125,124,125,125,125,0,1764984220.2370698
126,125,125,125,124,125,125,125,0,1764984220.2370725
126,125,125,124,124,125,125,124,0,1764984220.2370746
126,125,125,124,123,125,125,125,0,1764984220.2370772
126,125,125,124,123,125,124,125,0,1764984220.2370825
126,125,125,125,123,125,124,125,0,1764984220.2370849
126,125,125,125,124,125,125,125,0,1764984220.2370872
127,125,125,125,125,125,125,125,0,1764984220.2370896
127,125,125,125,125,125,125,125,0,1764984220.2370918
127,125,125,125,126,125,125,125,0,1764984220.2370942
127,125,125,125,126,125,125,125,0,1764984220.2370963
126,125,125,125,126,125,125,125,0,1764984220.2370985
126,125,125,125,126,125,124,125,0,1764984220.2371006
126,125,125,125,125,125,124,125,0,1764984220.2371025
126,125,125,125,125,125,124,125,0,1764984220.237105
126,125,125,125,124,125,124,125,0,1764984220.2371073
126,125,125,125,123,125,124,125,0,1764984220.2371092
127,125,125,125,122,125,125,125,0,1764984220.2371116
127,125,125,125,123,125,125,125,0,1764984220.2371137
127,125,125,125,123,125,125,125,0,1764984220.2371156
127,125,125,125,124,125,125,125,0,1764984220.237118
127,126,125,125,124,125,125,125,0,1764984220.23712
127,125,125,125,125,125,125,125,0,1764984220.237122
126,125,125,125,125,125,124,125,0,1764984220.2371244
126,125,125,125,125,125,125,125,0,1764984220.2371264
126,125,125,125,124,125,125,125,0,1764984220.237134
126,124,125,125,124,125,125,125,0,1764984220.2371364
126,125,125,125,124,125,125,125,0,1764984220.2371387
126,125,125,125,124,125,125,125,0,1764984220.2371407
126,125,125,125,125,125,125,125,0,1764984220.237148
126,125,125,125,125,126,125,125,0,1764984220.2371507
127,126,125,125,125,126,125,125,0,1764984220.2875373
126,126,125,125,125,125,125,125,0,1764984220.2875404
126,125,125,125,124,125,125,125,0,1764984220.2875426
126,125,125,124,123,125,124,125,0,1764984220.2875443
126,125,125,125,123,125,124,125,0,1764984220.2875466
126,125,125,124,123,124,124,125,0,1764984220.287549
126,125,125,125,123,125,124,125,0,1764984220.287551
127,125,125,125,123,125,125,125,0,1764984220.2875533
127,125,125,125,124,125,125,125,0,1764984220.2875562
127,125,125,125,125,125,125,125,0,1764984220.2875583
127,125,125,125,125,125,125,125,0,1764984220.2875607
126,125,125,125,125,125,125,125,0,1764984220.2875633
126,125,125,125,125,125,125,125,0,1764984220.2875655
126,125,124,125,126,125,125,125,0,1764984220.2875676
126,125,124,125,126,125,124,125,0,1764984220.28757
126,125,124,125,127,125,125,125,0,1764984220.2875733
126,125,125,125,128,125,125,125,0,1764984220.3077579
126,125,125,125,127,125,125,125,0,1764984220.3077614
126,125,125,125,127,125,125,125,0,1764984220.3077643
126,125,125,125,126,125,125,125,0,1764984220.3077664
127,125,125,125,125,125,125,125,0,1764984220.307769
127,125,125,125,125,125,125,125,0,1764984220.3077717
127,125,125,125,124,125,125,125,0,1764984220.3077743
126,125,125,125,123,125,124,124,0,1764984220.3077765
126,125,125,124,123,124,124,124,0,1764984220.3077788
126,125,125,124,122,125,124,124,0,1764984220.307781
126,125,124,125,123,125,124,125,0,1764984220.3077831
126,124,124,124,123,125,124,125,0,1764984220.3077853
126,125,124,125,124,125,125,125,0,1764984220.3077874
126,125,125,125,124,125,125,125,0,1764984220.3077896
126,125,125,125,125,125,125,125,0,1764984220.307792
126,125,125,124,124,125,125,125,0,1764984220.307794
126,125,125,124,124,125,125,125,0,1764984220.3279905
126,125,125,125,124,125,125,125,0,1764984220.3279946
126,125,125,125,124,125,125,125,0,1764984220.3279972
126,125,125,125,124,125,125,125,0,1764984220.3279996
126,125,125,125,124,125,125,125,0,1764984220.3280015
126,125,125,125,124,125,125,125,0,1764984220.3280041
126,125,125,125,124,125,125,125,0,1764984220.3280115
126,125,125,124,124,125,125,125,0,1764984220.328014
126,125,125,125,124,125,125,125,0,1764984220.328016
126,125,125,125,126,125,125,125,0,1764984220.3280184
126,125,125,125,127,125,125,125,0,1764984220.3280208
126,125,125,125,127,125,125,125,0,1764984220.3280227
126,125,125,125,126,125,125,125,0,1764984220.3280249
127,125,125,124,126,125,125,125,0,1764984220.3280272
126,125,125,124,125,125,124,125,0,1764984220.3280327
126,125,125,124,124,124,124,125,0,1764984220.3280354
126,124,125,124,124,125,124,125,0,1764984220.3784811
126,124,125,124,123,124,124,125,0,1764984220.3784857
126,125,125,124,123,125,124,125,0,1764984220.378494
126,125,125,125,123,125,125,125,0,1764984220.378497
126,125,125,125,123,125,125,125,0,1764984220.3784993
127,125,125,125,123,125,125,125,0,1764984220.3785017
127,125,125,125,124,125,125,125,0,1764984220.378504
127,125,125,125,124,125,125,125,0,1764984220.3785064
127,125,125,125,125,125,125,125,0,1764984220.3785088
127,126,125,125,126,125,125,125,0,1764984220.3785112
127,125,125,125,126,125,125,125,0,1764984220.3785133
127,125,125,125,126,125,125,125,0,1764984220.3785157
127,125,125,125,125,125,125,125,0,1764984220.378518
127,125,125,125,124,125,125,125,0,1764984220.3785203
127,125,125,125,123,125,125,125,0,1764984220.3785226
127,125,125,125,123,125,125,125,0,1764984220.3785248
127,125,125,125,123,125,125,125,0,1764984220.3987179
127,125,125,125,123,125,125,125,0,1764984220.3987205
127,125,125,125,124,125,125,125,0,1764984220.3987231
127,125,125,125,124,125,125,125,0,1764984220.3987253
126,125,125,125,124,125,125,125,0,1764984220.3987277
126,125,125,125,125,125,125,125,0,1764984220.39873
126,125,125,125,125,125,125,125,0,1764984220.3987322
126,124,125,125,125,125,125,125,0,1764984220.3987343
126,125,125,125,124,125,125,125,0,1764984220.3987367
126,125,125,125,124,125,125,125,0,1764984220.3987389
126,125,125,125,125,125,125,125,0,1764984220.398741
127,125,125,125,124,125,125,125,0,1764984220.3987434
126,125,125,125,125,125,125,125,0,1764984220.3987455
126,125,125,125,125,125,125,125,0,1764984220.3987482
126,125,125,124,125,125,125,125,0,1764984220.3987522
126,124,124,124,125,124,124,125,0,1764984220.398755
126,124,124,124,125,124,124,125,0,1764984220.4391217
126,124,125,124,125,125,124,124,0,1764984220.4391255
126,125,125,124,124,124,124,124,0,1764984220.439128
126,125,125,124,124,125,124,125,0,1764984220.43913
127,125,125,125,124,125,125,125,0,1764984220.4391327
126,125,125,125,124,125,125,125,0,1764984220.4391348
126,125,125,125,124,125,125,125,0,1764984220.4492433
126,125,125,125,124,125,125,125,0,1764984220.449246
126,125,125,125,125,125,125,125,0,1764984220.4492486
126,125,126,124,126,125,125,125,0,1764984220.4492507
126,125,125,124,125,125,124,125,0,1764984220.449253
126,125,125,124,125,125,124,125,0,1764984220.4492555
126,125,125,124,125,125,124,125,0,1764984220.4492576
126,125,125,125,123,125,125,125,0,1764984220.44926
126,125,124,125,123,125,125,125,0,1764984220.4492626
126,125,125,125,123,125,125,125,0,1764984220.4492652
126,125,125,126,123,125,125,125,0,1764984220.4694664
126,125,125,125,123,125,125,125,0,1764984220.46947
126,125,125,125,124,125,125,125,0,1764984220.469473
126,125,125,125,124,125,125,125,0,1764984220.4694748
126,125,125,125,124,124,124,125,0,1764984220.4694815
126,125,125,125,124,124,124,125,0,1764984220.469484
126,125,125,125,125,124,124,124,0,1764984220.4694862
126,125,125,125,124,125,125,124,0,1764984220.4694886
126,125,125,125,124,125,125,124,0,1764984220.4694912
127,125,125,125,124,125,125,125,0,1764984220.4694934
127,125,125,125,124,125,125,125,0,1764984220.4694958
127,125,125,125,124,125,125,125,0,1764984220.4694984
127,125,125,125,125,125,125,125,0,1764984220.469501
126,125,125,125,125,125,125,125,0,1764984220.469503
126,125,125,125,125,125,125,125,0,1764984220.4695055
126,125,125,124,125,125,124,125,0,1764984220.4695082
126,125,125,124,125,124,125,125,0,1764984220.509803
126,125,125,124,124,124,125,125,0,1764984220.5098083
126,125,125,124,124,124,125,125,0,1764984220.5098114
126,125,124,124,124,125,125,125,0,1764984220.5098152
126,125,125,125,124,125,125,125,0,1764984220.5098178
126,125,125,125,124,125,125,125,0,1764984220.5098202
126,125,125,125,125,125,125,125,0,1764984220.5098224
127,125,125,125,124,125,125,125,0,1764984220.5098248
126,125,125,125,123,125,125,125,0,1764984220.5098271
126,125,125,125,123,125,125,125,0,1764984220.5098293
126,125,125,124,123,125,125,125,0,1764984220.5098314
126,125,125,125,122,125,124,125,0,1764984220.509834
126,125,125,125,124,125,124,125,0,1764984220.5098362
126,125,125,125,124,125,124,125,0,1764984220.5098386
126,125,125,125,125,125,125,125,0,1764984220.509841
126,125,125,125,126,125,125,125,0,1764984220.509843
126,125,125,125,126,125,125,126,0,1764984220.530021
126,125,125,125,126,125,125,126,0,1764984220.5300248
126,125,125,125,125,125,125,126,0,1764984220.5300272
126,125,125,125,123,125,125,126,0,1764984220.5300293
126,125,125,125,122,124,124,125,0,1764984220.5300317
126,125,125,125,123,125,124,125,0,1764984220.5300384
126,124,125,125,123,125,124,125,0,1764984220.5300405
126,124,125,125,124,125,124,125,0,1764984220.530043
126,124,125,124,126,125,124,125,0,1764984220.5300453
126,125,125,124,126,125,125,125,0,1764984220.5300474
126,125,125,124,126,125,125,125,0,1764984220.5300498
126,125,125,125,126,125,125,126,0,1764984220.5300558
126,125,125,125,126,125,125,126,0,1764984220.5300584
126,125,125,125,125,125,125,126,0,1764984220.5300605
126,125,125,125,125,125,125,126,0,1764984220.530063
127,125,125,125,125,125,125,126,0,1764984220.530065
126,125,125,125,124,125,125,126,0,1764984220.560446
126,125,125,125,124,125,125,125,0,1764984220.5604506
126,125,125,125,124,125,125,125,0,1764984220.5604532
126,125,125,125,124,125,125,125,0,1764984220.5604594
126,125,125,125,124,125,125,125,0,1764984220.5604618
126,125,125,125,124,125,125,125,0,1764984220.5604641
127,125,125,125,123,125,125,125,0,1764984220.5604668
127,125,125,125,123,125,125,125,0,1764984220.56047
126,125,125,125,123,125,125,125,0,1764984220.5604722
126,125,125,125,123,125,125,125,0,1764984220.5604744
126,125,125,125,124,125,125,125,0,1764984220.5604763
126,125,125,125,125,125,125,125,0,1764984220.5604784
126,125,125,125,126,125,125,125,0,1764984220.5604806
126,125,125,125,126,125,125,125,0,1764984220.5604827
126,125,125,125,126,125,125,125,0,1764984220.560485
126,126,125,125,126,125,125,125,0,1764984220.5604877
126,125,125,125,125,125,125,125,0,1764984220.6009126
127,125,125,125,125,125,125,125,0,1764984220.6009173
126,125,125,125,124,125,125,125,0,1764984220.6009197
126,125,125,125,124,125,125,125,0,1764984220.600922
126,125,125,125,123,125,125,125,0,1764984220.6009245
126,125,125,125,123,125,125,125,0,1764984220.6009266
126,125,125,125,123,125,125,125,0,1764984220.600929
126,125,125,125,124,125,125,125,0,1764984220.6009312
126,125,125,125,124,125,125,125,0,1764984220.600933
126,125,125,125,124,125,125,125,0,1764984220.6009352
126,125,125,125,124,125,125,125,0,1764984220.6009374
127,125,125,125,123,125,125,125,0,1764984220.6009436
127,125,125,125,123,125,125,125,0,1764984220.600946
127,125,125,125,123,125,125,126,0,1764984220.6009479
127,125,125,125,124,125,125,126,0,1764984220.6009502
126,125,125,125,125,125,125,125,0,1764984220.6009529
126,125,125,125,125,124,125,125,0,1764984220.621184
126,125,125,125,125,125,125,125,0,1764984220.621188
126,125,125,125,126,125,125,125,0,1764984220.6211903
126,125,125,125,125,125,125,125,0,1764984220.621193
126,125,125,125,125,125,125,125,0,1764984220.621195
127,126,125,125,125,125,125,125,0,1764984220.6211972
127,125,125,125,124,125,125,125,0,1764984220.6211994
127,125,125,125,123,125,125,125,0,1764984220.6212015
126,125,125,125,123,125,125,125,0,1764984220.6212034
126,125,125,125,123,125,125,125,0,1764984220.6212058
126,125,125,125,124,125,125,125,0,1764984220.6212077
126,125,125,125,124,125,125,125,0,1764984220.62121
126,125,125,125,125,125,125,125,0,1764984220.6212158
127,125,125,125,125,125,125,125,0,1764984220.621218
127,125,125,125,125,125,125,125,0,1764984220.6212204
127,125,125,125,124,125,125,125,0,1764984220.621223
127,125,125,125,124,125,125,125,0,1764984220.6720767
127,125,125,125,124,125,125,125,0,1764984220.6720812
127,125,125,125,125,125,125,125,0,1764984220.6720834
126,125,125,125,125,124,124,125,0,1764984220.6720858
126,125,124,125,125,124,124,124,0,1764984220.6720881
125,124,124,124,125,124,124,124,0,1764984220.6720903
125,124,124,124,123,124,124,124,0,1764984220.6720927
125,124,124,124,122,124,124,124,0,1764984220.672095
126,124,124,124,123,124,124,124,0,1764984220.672097
126,125,125,124,123,125,124,125,0,1764984220.672099
126,125,125,125,124,125,125,125,0,1764984220.672107
126,125,125,125,125,125,125,125,0,1764984220.6721094
126,125,125,125,126,125,125,125,0,1764984220.6721125
126,125,125,125,126,125,125,125,0,1764984220.6721144
126,125,125,125,126,125,125,125,0,1764984220.6721168
127,125,125,125,126,125,125,125,0,1764984220.6721194
127,125,125,125,126,125,125,125,0,1764984220.6924498
127,125,125,125,126,125,125,125,0,1764984220.6924536
127,125,125,125,126,125,125,125,0,1764984220.6924562
127,125,125,124,126,125,125,125,0,1764984220.6924584
127,125,125,124,126,125,125,125,0,1764984220.6924605
127,125,125,124,125,125,125,125,0,1764984220.692463
127,125,125,124,124,125,125,125,0,1764984220.692465
127,125,125,125,124,125,125,125,0,1764984220.6924675
127,125,125,125,124,125,125,125,0,1764984220.6924698
127,125,125,125,123,125,125,125,0,1764984220.6924717
126,125,125,125,124,125,125,125,0,1764984220.6924741
126,125,125,125,124,125,125,125,0,1764984220.6924763
126,124,125,125,124,125,124,125,0,1764984220.692479
126,124,125,125,124,125,124,125,0,1764984220.692481
126,124,125,125,124,125,124,125,0,1764984220.6924832
126,125,125,125,124,125,124,125,0,1764984220.6924853
127,125,125,125,124,125,125,125,0,1764984220.712751
127,125,125,125,125,125,125,125,0,1764984220.7127545
127,125,125,125,126,125,125,125,0,1764984220.712757
127,125,125,125,127,125,125,125,0,1764984220.7127593
126,125,125,125,127,125,125,125,0,1764984220.7127614
126,125,124,125,126,125,124,125,0,1764984220.7127638
126,125,125,125,126,125,124,125,0,1764984220.7127662
126,125,125,125,125,125,124,125,0,1764984220.7127686
126,125,125,125,124,125,124,125,0,1764984220.7127705
126,125,125,125,124,125,124,125,0,1764984220.7127726
127,125,125,125,123,125,125,125,0,1764984220.712775
127,125,125,125,122,125,125,125,0,1764984220.712777
127,125,125,124,122,125,125,125,0,1764984220.712779
127,125,125,124,122,125,125,125,0,1764984220.7127845
127,125,125,124,122,125,125,125,0,1764984220.712787
126,125,125,125,123,125,125,125,0,1764984220.712789
126,125,125,125,123,125,124,125,0,1764984220.763256
126,125,125,125,122,125,124,125,0,1764984220.76326
126,124,125,125,122,125,125,125,0,1764984220.7632623
126,124,125,125,123,125,125,125,0,1764984220.7632644
126,124,125,125,124,125,125,125,0,1764984220.7632668
127,125,125,125,124,125,125,125,0,1764984220.7632728
127,125,125,125,125,125,125,125,0,1764984220.763275
127,125,125,125,126,125,125,125,0,1764984220.763277
127,125,125,125,127,125,125,125,0,1764984220.7632794
127,126,125,125,127,125,125,125,0,1764984220.7632813
126,125,125,125,127,125,125,125,0,1764984220.7632835
126,125,125,124,127,125,124,125,0,1764984220.7632854
126,125,125,124,126,124,124,125,0,1764984220.7632875
126,125,125,124,125,124,124,124,0,1764984220.7632937
126,125,125,125,124,124,124,125,0,1764984220.7633004
126,125,125,125,123,124,124,125,0,1764984220.7633026
127,125,125,125,123,125,125,125,0,1764984220.7834706
127,125,125,125,123,125,125,125,0,1764984220.7834747
127,125,125,125,123,125,125,125,0,1764984220.783477
127,125,125,125,124,125,125,125,0,1764984220.7834792
127,125,125,125,125,125,125,125,0,1764984220.7834816
126,125,125,125,125,125,125,124,0,1764984220.7834878
126,125,125,125,124,125,124,125,0,1764984220.7834904
126,125,125,125,123,125,124,125,0,1764984220.7834926
126,125,125,125,123,125,124,125,0,1764984220.7835016
126,125,125,125,123,125,124,125,0,1764984220.783504
127,125,125,125,122,125,125,125,0,1764984220.7835062
127,125,125,125,123,125,125,125,0,1764984220.783508
127,125,125,125,124,125,125,125,0,1764984220.7835102
127,125,125,125,125,125,125,125,0,1764984220.7835124
127,125,125,125,126,125,125,125,0,1764984220.7835147
126,125,125,125,126,125,125,125,0,1764984220.7835171
126,125,125,125,126,125,124,125,0,1764984220.8239193
126,125,125,125,125,125,124,125,0,1764984220.8239238
126,125,125,125,125,125,124,125,0,1764984220.8239264
126,125,125,125,124,125,124,125,0,1764984220.8239288
126,125,125,125,124,125,124,125,0,1764984220.8239315
127,125,125,125,125,125,125,125,0,1764984220.8239338
127,125,125,125,125,125,125,125,0,1764984220.8239362
127,125,125,125,125,125,125,125,0,1764984220.8239386
127,125,125,125,125,125,125,125,0,1764984220.8239408
127,125,125,125,125,125,125,125,0,1764984220.8239431
126,125,125,125,124,125,124,125,0,1764984220.8239455
126,125,125,125,124,124,124,125,0,1764984220.8239477
126,125,125,125,124,125,124,125,0,1764984220.8239498
126,125,125,125,124,125,124,125,0,1764984220.8239522
126,125,125,125,125,125,124,125,0,1764984220.8239543
126,125,125,125,125,125,125,125,0,1764984220.8239567
126,125,125,125,125,125,125,126,0,1764984220.8441331
126,125,125,125,125,125,125,125,0,1764984220.844137
127,125,125,125,124,125,125,125,0,1764984220.8441393
127,125,125,125,123,125,125,125,0,1764984220.8441415
127,125,125,125,123,125,125,125,0,1764984220.8441436
126,125,125,125,122,125,124,125,0,1764984220.8441458
126,125,125,125,122,125,124,125,0,1764984220.844148
126,125,125,125,123,124,124,125,0,1764984220.84415
126,125,125,125,124,124,124,125,0,1764984220.844152
126,125,125,124,125,124,125,125,0,1764984220.8441544
127,125,125,125,125,125,125,125,0,1764984220.8441565
127,125,125,125,125,125,125,125,0,1764984220.8441584
126,125,125,125,125,125,125,125,0,1764984220.8441606
126,125,125,125,124,125,125,125,0,1764984220.8441625
126,125,125,125,124,125,125,125,0,1764984220.8441648
126,125,125,125,125,125,125,125,0,1764984220.8441672
126,125,125,125,125,125,124,125,0,1764984220.9148815
126,125,125,125,125,125,125,125,0,1764984220.9148848
126,125,125,125,124,125,125,125,0,1764984220.9148874
126,125,125,125,123,125,125,125,0,1764984220.9148896
126,125,125,125,123,125,125,125,0,1764984220.9148917
127,125,125,125,123,125,125,125,0,1764984220.9148939
127,125,125,125,124,125,125,125,0,1764984220.914896
127,125,125,125,124,125,125,125,0,1764984220.9148982
127,126,125,125,125,125,125,125,0,1764984220.9149003
127,125,125,125,125,125,125,125,0,1764984220.9149022
126,125,125,125,126,125,125,125,0,1764984220.9149044
126,125,125,125,125,125,124,125,0,1764984220.9149063
126,125,125,124,125,125,124,125,0,1764984220.9149086
126,125,125,124,125,125,124,125,0,1764984220.914915
126,125,125,125,124,125,124,125,0,1764984220.9149177
126,125,125,125,125,125,124,125,0,1764984220.9149199
127,125,125,125,125,126,125,125,0,1764984220.914922
126,125,125,125,125,125,125,126,0,1764984220.9149244
126,125,125,125,125,125,125,125,0,1764984220.9149263
126,125,125,125,125,125,125,125,0,1764984220.9149284
126,125,125,124,124,125,125,125,0,1764984220.9149303
126,125,125,124,124,125,125,125,0,1764984220.9149358
126,125,125,125,125,125,125,125,0,1764984220.9149382
126,125,125,125,126,125,125,125,0,1764984220.91494
126,125,125,125,127,125,125,125,0,1764984220.9149423
127,125,125,125,127,125,125,125,0,1764984220.9149444
127,126,125,125,127,125,125,125,0,1764984220.9149466
127,125,125,125,126,125,125,125,0,1764984220.9149487
127,125,125,125,125,125,125,126,0,1764984220.9149635
126,125,125,125,124,125,125,126,0,1764984220.9149654
126,125,125,125,124,125,125,125,0,1764984220.9149675
126,125,125,125,124,125,125,125,0,1764984220.9149702
126,125,124,125,124,125,124,125,0,1764984220.9352393
125,124,124,124,124,124,124,124,0,1764984220.9352436
126,124,124,124,124,124,124,124,0,1764984220.935246
126,125,124,124,124,124,124,125,0,1764984220.9352486
126,125,124,124,123,124,124,125,0,1764984220.935251
126,125,125,124,123,125,125,125,0,1764984220.935253
127,126,125,125,124,125,125,125,0,1764984220.9352553
127,126,125,125,124,125,125,125,0,1764984220.9352577
127,125,125,125,124,125,125,125,0,1764984220.9352596
126,125,125,125,124,125,125,125,0,1764984220.9352617
126,125,125,125,124,125,125,125,0,1764984220.9352636
126,125,125,125,123,125,125,125,0,1764984220.9352658
126,125,125,125,123,125,125,125,0,1764984220.9352682
126,125,125,125,124,125,125,125,0,1764984220.9352703
126,125,125,125,124,124,125,125,0,1764984220.9352725
126,125,125,125,124,125,125,125,0,1764984220.9352748
126,125,125,125,125,125,125,125,0,1764984220.9858973
126,125,125,126,126,125,125,125,0,1764984220.9859009
126,125,125,125,126,125,125,125,0,1764984220.9859035
126,125,125,125,127,125,125,125,0,1764984220.985909
126,125,125,125,127,125,125,125,0,1764984220.9859114
126,125,125,125,127,125,125,125,0,1764984220.9859135
126,125,125,125,126,125,125,125,0,1764984220.9859157
127,125,125,125,126,125,125,125,0,1764984220.9859178
127,125,125,125,126,125,125,125,0,1764984220.98592
127,125,125,125,126,125,125,125,0,1764984220.985922
126,124,124,125,125,125,125,125,0,1764984220.9859242
126,124,124,125,125,124,125,125,0,1764984220.9859266
125,123,124,125,125,125,125,125,0,1764984220.9859288
125,123,124,125,124,125,125,125,0,1764984220.9859307
125,124,124,125,122,125,125,125,0,1764984220.985933
126,125,125,125,124,125,125,125,0,1764984220.9859354
126,126,125,125,126,125,125,125,0,1764984221.0061386
127,126,125,125,126,125,125,125,0,1764984221.0061424
127,126,125,125,126,125,125,125,0,1764984221.0061448
127,125,125,126,127,125,125,125,0,1764984221.0061471
126,125,125,126,126,125,125,125,0,1764984221.0061493
126,125,125,126,124,125,125,125,0,1764984221.0061514
127,125,125,127,124,125,125,125,0,1764984221.0061538
127,125,125,127,127,125,125,125,0,1764984221.006156
126,125,125,127,127,125,125,125,0,1764984221.006158
126,125,126,126,127,125,125,125,0,1764984221.00616
127,125,125,125,126,125,125,125,0,1764984221.0061624
127,125,125,123,125,125,125,125,0,1764984221.0061681
127,125,125,122,123,125,124,125,0,1764984221.0061703
126,124,125,122,121,125,124,125,0,1764984221.0061727
126,124,124,121,120,125,124,125,0,1764984221.0061748
126,124,124,121,120,125,124,125,0,1764984221.0061772
125,124,125,122,120,125,124,125,0,1764984221.0566194
126,125,125,123,121,125,125,125,0,1764984221.0566237
126,125,125,123,122,125,125,125,0,1764984221.0566258
127,125,125,124,124,125,125,125,0,1764984221.0566285
127,125,125,125,126,125,125,125,0,1764984221.056631
127,125,125,125,127,125,125,125,0,1764984221.0566332
126,125,125,126,129,125,125,125,0,1764984221.0566761
126,125,125,126,129,125,125,125,0,1764984221.0566783
126,125,125,125,129,125,125,125,0,1764984221.056681
126,125,125,125,129,125,125,125,0,1764984221.056687
126,124,125,125,129,125,125,125,0,1764984221.0566897
126,124,125,125,128,125,125,125,0,1764984221.056692
126,124,125,125,128,125,125,125,0,1764984221.0566943
127,125,125,125,127,125,125,125,0,1764984221.0566967
127,125,125,125,126,125,125,126,0,1764984221.0566988
127,126,125,125,126,125,125,126,0,1764984221.056711
127,126,125,125,126,125,125,125,0,1764984221.0768912
126,126,125,125,126,125,125,125,0,1764984221.076894
126,126,125,125,125,125,124,125,0,1764984221.0768962
126,126,125,125,123,125,124,125,0,1764984221.0768983
124,124,125,125,121,125,124,124,0,1764984221.0769002
124,123,125,125,118,125,124,125,0,1764984221.0769024
125,123,125,125,115,125,125,125,0,1764984221.076907
125,123,125,124,114,125,125,125,0,1764984221.076909
126,124,125,124,111,125,125,125,0,1764984221.0769114
128,125,125,124,110,125,125,126,0,1764984221.0769136
128,125,125,124,110,125,125,126,0,1764984221.0769157
127,125,125,124,110,125,125,125,0,1764984221.0769181
127,125,125,124,111,125,124,125,0,1764984221.07692
127,125,125,124,113,125,124,125,0,1764984221.0769222
126,125,125,124,115,124,124,125,0,1764984221.076924
126,125,125,124,119,124,124,125,0,1764984221.0769267
127,125,125,125,123,125,125,125,0,1764984221.117498
127,125,125,125,125,125,125,125,0,1764984221.1175022
126,125,125,125,128,125,125,125,0,1764984221.1175048
126,125,125,125,129,125,125,125,0,1764984221.1175067
126,125,125,125,130,125,125,125,0,1764984221.1175094
126,125,125,125,130,125,125,125,0,1764984221.1175115
126,125,125,125,130,125,125,125,0,1764984221.1175134
126,125,125,126,130,125,125,125,0,1764984221.1175158
126,125,125,126,130,125,125,125,0,1764984221.1175177
126,125,125,126,129,125,125,125,0,1764984221.1175199
127,125,125,126,129,125,125,125,0,1764984221.117522
127,125,126,126,129,125,125,125,0,1764984221.117524
127,125,126,126,129,125,125,125,0,1764984221.1175308
126,126,125,126,129,125,125,125,0,1764984221.1175332
126,126,125,125,129,125,125,125,0,1764984221.117535
126,126,125,125,130,125,125,125,0,1764984221.1175377
126,125,125,125,131,125,125,125,0,1764984221.137674
126,125,125,125,133,125,124,125,0,1764984221.137678
126,125,125,124,136,125,124,125,0,1764984221.13768
126,124,125,124,139,125,124,125,0,1764984221.1376822
126,124,125,124,140,125,124,125,0,1764984221.1376846
126,124,125,125,140,125,124,125,0,1764984221.1376867
126,124,125,125,138,125,125,125,0,1764984221.1376889
126,125,125,125,134,125,125,125,0,1764984221.1376908
126,125,125,125,132,125,125,125,0,1764984221.137693
127,125,125,125,130,125,125,125,0,1764984221.137695
126,125,126,125,128,125,125,125,0,1764984221.137697
126,125,125,125,127,125,125,125,0,1764984221.1376991
126,124,125,125,127,125,125,125,0,1764984221.137701
126,124,125,124,124,125,125,125,0,1764984221.1377032
126,124,125,124,121,125,125,125,0,1764984221.1377053
126,124,124,124,119,125,125,125,0,1764984221.1377075
126,124,125,124,116,125,125,125,0,1764984221.1679955
127,125,125,124,115,125,125,125,0,1764984221.1679983
127,125,125,124,113,125,125,126,0,1764984221.1680005
127,125,125,124,113,125,125,125,0,1764984221.1680026
127,126,125,124,112,125,125,125,0,1764984221.1680045
127,126,125,124,111,125,125,125,0,1764984221.1680067
126,125,124,124,111,124,124,125,0,1764984221.1680088
126,125,124,124,112,124,124,125,0,1764984221.168011
125,125,124,124,112,124,124,125,0,1764984221.1680129
125,124,124,124,114,124,124,125,0,1764984221.168015
125,124,124,124,116,124,124,125,0,1764984221.1680214
126,124,125,125,118,125,125,125,0,1764984221.1680248
127,125,125,125,120,125,125,125,0,1764984221.168027
127,125,125,125,122,125,125,125,0,1764984221.168029
127,126,125,125,122,125,125,126,0,1764984221.1680312
127,125,125,125,122,125,125,125,0,1764984221.1680377
126,125,125,125,122,125,125,125,0,1764984221.208396
126,125,125,125,123,125,125,125,0,1764984221.2083988
126,125,125,125,123,125,124,125,0,1764984221.2084012
126,124,125,125,123,125,124,125,0,1764984221.208403
126,125,125,125,124,125,124,125,0,1764984221.2084053
126,125,125,125,125,125,124,125,0,1764984221.2084074
126,125,125,125,125,125,125,125,0,1764984221.2084095
126,125,125,125,126,125,125,125,0,1764984221.2084117
126,124,125,125,126,125,125,125,0,1764984221.2084138
126,125,125,126,126,125,125,125,0,1764984221.2084157
126,125,125,125,126,125,125,125,0,1764984221.208418
126,125,125,125,126,125,125,125,0,1764984221.2084255
126,125,125,125,127,125,125,125,0,1764984221.2084274
126,125,125,124,127,124,124,125,0,1764984221.2084298
126,125,125,124,127,124,124,125,0,1764984221.208435
125,125,125,124,126,124,124,125,0,1764984221.2084372
125,125,125,124,126,124,124,125,0,1764984221.2287438
126,125,125,125,126,125,125,125,0,1764984221.2287478
126,125,125,125,126,125,125,125,0,1764984221.2287495
127,125,125,125,127,125,125,126,0,1764984221.2287517
127,125,125,125,129,125,125,126,0,1764984221.228753
127,125,125,125,130,125,125,125,0,1764984221.228755
126,125,125,125,131,125,125,125,0,1764984221.2287564
125,125,124,124,131,125,125,125,0,1764984221.2287583
125,124,124,124,131,125,124,124,0,1764984221.2287598
125,124,124,124,131,125,124,125,0,1764984221.2287617
125,124,125,124,131,125,125,125,0,1764984221.228763
126,124,125,124,131,125,125,125,0,1764984221.2287648
127,124,125,125,131,125,125,125,0,1764984221.2287664
127,125,126,125,132,125,125,126,0,1764984221.2287683
127,126,125,125,131,125,125,126,0,1764984221.2287698
127,126,125,125,129,125,125,125,0,1764984221.2287722
127,126,125,125,127,125,125,125,0,1764984221.2792842
126,125,125,125,125,125,125,125,0,1764984221.2792878
126,125,124,125,123,124,124,125,0,1764984221.2792902
125,124,124,125,122,124,124,125,0,1764984221.2792923
125,124,125,125,121,124,124,125,0,1764984221.279295
126,124,125,125,120,125,125,125,0,1764984221.279297
126,124,125,125,120,125,125,125,0,1764984221.279299
126,125,125,125,119,125,125,125,0,1764984221.2793012
127,125,125,125,119,125,125,125,0,1764984221.2793033
127,125,125,125,119,125,125,125,0,1764984221.2793052
126,125,125,125,120,125,125,125,0,1764984221.2793074
126,125,125,125,121,125,125,125,0,1764984221.2793093
126,125,125,125,123,125,125,125,0,1764984221.2793162
126,125,125,125,124,125,125,125,0,1764984221.2793183
126,124,125,125,126,125,125,125,0,1764984221.2793202
126,124,125,125,128,125,125,125,0,1764984221.2793226
126,125,125,125,130,125,125,125,0,1764984221.2994707
126,125,125,124,132,125,125,125,0,1764984221.2994738
126,125,125,125,134,125,125,125,0,1764984221.299476
127,125,126,125,135,125,125,125,0,1764984221.299478
126,125,125,125,136,125,125,125,0,1764984221.29948
126,125,125,125,138,125,125,125,0,1764984221.2994823
126,125,125,125,138,125,125,125,0,1764984221.2994843
126,125,124,124,137,125,124,125,0,1764984221.2994862
126,124,124,124,135,125,124,125,0,1764984221.2994883
126,125,125,124,132,125,124,125,0,1764984221.2994902
126,125,125,124,127,125,124,124,0,1764984221.2994924
126,125,125,124,123,124,124,124,0,1764984221.2994947
126,125,125,125,119,125,124,125,0,1764984221.2994967
126,125,125,125,116,125,125,125,0,1764984221.2994988
126,125,125,125,105,125,125,125,0,1764984221.2995007
127,125,125,125,103,125,125,125,0,1764984221.2995033
127,125,125,125,106,125,125,125,0,1764984221.3398879
127,125,125,125,109,125,125,125,0,1764984221.3398924
127,125,125,125,113,125,125,125,0,1764984221.3398952
126,125,125,124,124,125,125,125,0,1764984221.3398979
126,124,125,124,129,125,125,125,0,1764984221.3399003
125,124,124,124,131,125,125,125,0,1764984221.3399026
125,124,124,125,131,125,125,125,0,1764984221.339905
125,124,125,125,131,125,125,124,0,1764984221.3399074
126,125,125,125,129,125,125,125,0,1764984221.3399096
126,125,125,125,128,125,125,125,0,1764984221.339912
127,126,126,125,125,125,125,125,0,1764984221.3399143
127,126,126,125,124,125,125,125,0,1764984221.3399165
127,126,125,125,124,125,125,125,0,1764984221.3399186
127,126,125,125,125,125,125,125,0,1764984221.339921
126,125,125,124,125,125,125,125,0,1764984221.3399231
126,125,125,124,125,125,125,125,0,1764984221.3399258
126,125,124,124,124,125,125,125,0,1764984221.3601358
126,124,125,124,123,124,124,125,0,1764984221.3601396
126,124,125,125,121,125,125,124,0,1764984221.3601418
126,125,125,125,121,125,125,125,0,1764984221.3601441
127,125,125,125,122,125,125,125,0,1764984221.3601465
127,125,125,125,123,125,125,125,0,1764984221.3601487
127,125,125,125,121,125,125,125,0,1764984221.360151
126,125,125,125,122,125,125,125,0,1764984221.3601534
126,124,125,125,123,125,125,125,0,1764984221.3601553
126,124,125,125,121,125,125,125,0,1764984221.3601577
126,124,125,125,122,124,124,125,0,1764984221.3601596
126,124,125,125,125,124,124,125,0,1764984221.360162
127,125,125,125,127,125,124,125,0,1764984221.3601644
127,125,125,125,129,125,125,125,0,1764984221.3601663
127,125,125,125,130,125,125,125,0,1764984221.3601687
126,125,125,125,127,125,125,125,0,1764984221.3601747
126,125,125,125,126,125,125,125,0,1764984221.3904696
126,125,125,125,123,125,125,125,0,1764984221.3904734
126,125,125,125,120,125,125,125,0,1764984221.390476
126,124,125,125,119,125,125,125,0,1764984221.3904784
126,124,125,125,120,125,125,125,0,1764984221.390481
126,124,125,125,114,125,124,125,0,1764984221.3904831
126,125,125,125,113,125,124,125,0,1764984221.3904858
126,125,124,125,114,125,125,125,0,1764984221.390488
126,125,125,125,116,125,125,125,0,1764984221.39049
126,125,125,125,118,125,125,125,0,1764984221.3904924
126,125,125,125,127,125,125,125,0,1764984221.3904948
126,125,125,125,130,125,125,125,0,1764984221.390497
126,125,125,125,129,125,125,125,0,1764984221.3904994
126,125,125,125,127,125,125,125,0,1764984221.3905056
126,125,125,125,125,125,124,125,0,1764984221.390508
126,125,125,125,123,125,124,125,0,1764984221.3905108
126,125,125,124,122,125,124,125,0,1764984221.430864
126,124,125,124,122,125,124,125,0,1764984221.430869
126,124,124,124,120,125,125,125,0,1764984221.430872
126,125,125,124,120,125,125,125,0,1764984221.4308753
126,125,125,125,119,125,125,125,0,1764984221.430878
126,125,125,125,118,125,125,125,0,1764984221.43088
126,125,125,125,119,125,125,125,0,1764984221.4308822
126,125,125,125,122,125,124,125,0,1764984221.4308884
126,125,125,125,122,125,124,125,0,1764984221.4308908
126,125,125,125,125,125,124,125,0,1764984221.430893
126,125,125,125,126,125,124,125,0,1764984221.4308953
126,125,125,125,125,125,124,125,0,1764984221.430902
126,125,125,125,125,125,125,125,0,1764984221.4309046
127,125,125,124,127,125,125,125,0,1764984221.4309065
127,125,125,125,130,125,125,125,0,1764984221.430909
127,125,125,125,131,125,125,125,0,1764984221.4309127
126,125,125,125,131,125,125,125,0,1764984221.451117
126,125,125,125,131,125,125,125,0,1764984221.451125
127,125,125,125,128,125,125,125,0,1764984221.4511304
127,125,125,125,124,125,125,125,0,1764984221.4511352
126,125,125,125,124,125,124,125,0,1764984221.4511402
126,125,125,124,124,125,124,125,0,1764984221.4511445
126,125,125,125,123,125,124,125,0,1764984221.4511492
126,125,125,125,124,124,124,125,0,1764984221.451154
126,125,125,125,125,124,124,125,0,1764984221.4511583
126,125,125,125,124,124,124,125,0,1764984221.4511626
127,125,125,125,123,125,125,125,0,1764984221.4511669
126,125,125,125,123,125,125,125,0,1764984221.4511714
127,125,125,124,122,125,125,125,0,1764984221.4511757
127,124,125,124,122,125,125,125,0,1764984221.45118
127,125,125,124,122,125,125,125,0,1764984221.4511843
126,125,125,125,123,125,125,125,0,1764984221.4511962
126,125,125,125,124,125,125,125,0,1764984221.5016396
126,125,125,125,125,125,125,125,0,1764984221.5016475
126,125,125,126,125,125,125,125,0,1764984221.5016618
127,125,125,125,124,125,125,125,0,1764984221.5016668
127,125,125,125,123,125,125,125,0,1764984221.5016718
126,125,125,125,122,125,125,125,0,1764984221.5016763
126,125,125,124,121,125,125,125,0,1764984221.5016806
126,125,125,124,121,125,125,125,0,1764984221.501685
126,125,125,125,122,125,125,125,0,1764984221.5016894
126,125,125,125,123,125,125,125,0,1764984221.5016935
126,125,125,125,125,125,125,125,0,1764984221.5016978
126,125,125,125,126,125,125,125,0,1764984221.501702
126,125,125,125,126,125,124,125,0,1764984221.5017066
126,125,124,125,125,125,124,125,0,1764984221.501714
126,125,125,124,125,125,124,125,0,1764984221.5017183
126,125,125,124,124,125,125,125,0,1764984221.5017374
126,125,125,125,124,125,125,125,0,1764984221.521941
126,125,125,125,124,125,125,126,0,1764984221.5219486
127,125,126,125,126,125,125,126,0,1764984221.521954
127,125,125,125,127,125,125,125,0,1764984221.5219586
127,125,125,125,127,125,125,125,0,1764984221.5219631
126,125,125,124,127,125,125,125,0,1764984221.5219674
126,125,124,124,127,125,124,124,0,1764984221.5219717
126,125,124,124,126,124,124,124,0,1764984221.5219758
126,125,124,124,125,124,124,124,0,1764984221.52198
126,125,124,125,124,125,124,124,0,1764984221.5219846
126,125,125,125,124,125,125,125,0,1764984221.5219886
126,125,125,125,125,125,125,125,0,1764984221.5219927
126,125,125,125,125,125,125,125,0,1764984221.521997
126,125,125,125,125,125,125,125,0,1764984221.5220013
127,125,125,125,125,125,125,125,0,1764984221.5220053
127,125,125,125,124,125,125,125,0,1764984221.5220163
126,125,125,125,124,124,124,125,0,1764984221.5422642
126,125,125,125,124,125,125,125,0,1764984221.5422707
126,125,125,125,124,125,125,125,0,1764984221.5422757
126,125,125,125,125,125,125,125,0,1764984221.5422804
126,125,125,125,124,125,125,125,0,1764984221.542285
126,125,125,125,123,125,125,125,0,1764984221.5422897
126,125,125,125,123,125,125,125,0,1764984221.5422943
127,125,125,124,123,125,125,125,0,1764984221.542299
127,125,125,124,124,125,125,125,0,1764984221.5423036
127,124,125,124,126,125,125,125,0,1764984221.5423079
126,124,125,125,128,125,125,125,0,1764984221.5423124
126,124,125,125,128,125,125,125,0,1764984221.542317
125,124,124,125,129,125,124,125,0,1764984221.5423212
125,125,124,125,128,125,124,124,0,1764984221.5423288
125,125,125,125,127,125,124,125,0,1764984221.5423334
126,126,125,124,124,125,125,125,0,1764984221.5423522
127,126,125,124,123,125,125,125,0,1764984221.5929933
127,126,125,125,122,125,125,125,0,1764984221.5930045
127,125,125,125,122,125,125,126,0,1764984221.59301
127,124,125,125,123,125,125,126,0,1764984221.5930145
126,125,125,125,123,125,125,125,0,1764984221.5930192
125,124,125,125,124,125,124,125,0,1764984221.593024
125,124,124,124,124,124,124,125,0,1764984221.5930362
125,125,124,124,124,124,124,125,0,1764984221.5930412
126,125,125,124,123,124,124,125,0,1764984221.5930457
126,125,125,125,122,125,124,125,0,1764984221.5930505
127,125,125,125,123,125,125,125,0,1764984221.5930545
127,125,125,125,123,125,125,125,0,1764984221.5930588
127,125,125,125,124,125,125,125,0,1764984221.5930634
126,125,125,125,125,125,125,125,0,1764984221.593068
126,125,125,125,126,125,125,125,0,1764984221.5930722
126,125,125,125,126,125,125,125,0,1764984221.593084
126,125,125,124,126,125,125,125,0,1764984221.6134326
126,124,125,124,125,125,125,125,0,1764984221.6134393
126,124,125,124,125,125,125,125,0,1764984221.613444
126,125,124,125,126,125,124,125,0,1764984221.6134489
126,125,125,125,126,125,125,125,0,1764984221.6134536
126,125,125,125,126,125,125,125,0,1764984221.6134582
126,126,125,125,126,126,125,125,0,1764984221.6134624
126,125,125,125,124,125,125,125,0,1764984221.613467
126,125,125,125,124,125,125,125,0,1764984221.6134715
127,125,125,125,123,125,125,125,0,1764984221.6134758
126,125,125,124,123,125,125,125,0,1764984221.6134803
126,124,125,124,123,125,124,125,0,1764984221.6134849
126,125,125,124,125,125,124,125,0,1764984221.6134892
126,125,125,124,126,125,124,125,0,1764984221.6134934
126,125,125,124,127,125,125,125,0,1764984221.613498
126,126,125,125,127,125,125,125,0,1764984221.6135106
126,126,125,125,127,125,125,125,0,1764984221.6845796
126,125,125,125,126,125,125,125,0,1764984221.684587
126,125,125,125,125,125,125,125,0,1764984221.6845922
126,125,125,125,125,125,125,125,0,1764984221.684597
126,125,125,125,125,125,125,125,0,1764984221.6846013
126,125,125,125,125,125,125,125,0,1764984221.6846056
126,125,125,125,125,125,125,125,0,1764984221.6846104
126,125,125,125,124,125,125,125,0,1764984221.6846144
127,125,125,125,123,125,125,125,0,1764984221.684619
127,126,125,125,123,125,125,125,0,1764984221.6846237
126,125,125,125,122,125,125,125,0,1764984221.684628
126,125,125,125,123,125,125,125,0,1764984221.684632
126,125,125,125,125,125,125,125,0,1764984221.684636
126,125,125,125,127,125,125,125,0,1764984221.6846404
126,125,125,125,128,125,125,125,0,1764984221.6846447
126,125,125,125,127,125,125,125,0,1764984221.684649
126,125,125,125,126,125,125,125,0,1764984221.6846533
126,125,124,125,123,125,125,125,0,1764984221.6846576
126,125,124,125,121,125,125,125,0,1764984221.6846619
126,125,124,125,120,124,125,125,0,1764984221.684666
126,124,125,124,120,124,124,125,0,1764984221.68467
126,125,125,125,121,125,125,125,0,1764984221.684674
126,125,125,125,123,125,125,125,0,1764984221.6846783
126,125,125,125,125,125,125,125,0,1764984221.6846828
127,125,125,125,125,125,125,125,0,1764984221.684695
127,125,125,125,126,125,125,125,0,1764984221.6847017
126,125,125,125,125,125,124,125,0,1764984221.6847062
126,125,124,124,125,125,124,125,0,1764984221.6847107
126,125,124,124,125,125,124,125,0,1764984221.684715
126,125,124,125,126,125,124,125,0,1764984221.6847193
126,125,125,125,125,125,124,125,0,1764984221.6847239
126,125,125,125,126,125,125,125,0,1764984221.6847346
126,125,125,125,126,125,125,125,0,1764984221.725166
126,125,125,125,125,125,125,125,0,1764984221.7251794
126,125,125,125,124,125,125,125,0,1764984221.7251844
126,126,125,125,123,125,125,125,0,1764984221.7251947
126,126,125,125,123,125,125,125,0,1764984221.7252
126,125,125,125,123,124,125,125,0,1764984221.7252047
126,125,125,125,124,125,125,125,0,1764984221.725209
126,125,125,125,124,125,125,125,0,1764984221.7252138
126,125,125,125,124,125,125,125,0,1764984221.725223
126,125,125,124,125,125,125,125,0,1764984221.725228
126,125,125,125,125,125,125,125,0,1764984221.7252324
126,125,125,125,125,125,125,125,0,1764984221.725237
126,125,125,125,125,125,125,125,0,1764984221.7252417
126,125,125,125,125,125,125,125,0,1764984221.725246
126,125,125,125,125,125,125,125,0,1764984221.7252502
126,125,125,125,126,125,125,125,0,1764984221.7252607
126,125,125,125,126,125,125,125,0,1764984221.7454126
126,125,126,125,125,125,125,125,0,1764984221.7454183
126,125,125,125,125,125,125,125,0,1764984221.7454228
126,125,125,125,124,125,125,126,0,1764984221.7454271
126,125,125,125,124,125,125,126,0,1764984221.7454317
126,125,125,125,123,125,125,126,0,1764984221.745436
126,125,125,125,123,125,125,126,0,1764984221.7454402
126,125,125,125,124,125,125,126,0,1764984221.7454443
126,125,125,125,124,125,125,126,0,1764984221.7454486
126,125,125,125,124,125,125,125,0,1764984221.7454531
126,125,125,124,123,125,124,125,0,1764984221.7454572
126,125,124,124,122,124,124,124,0,1764984221.7454615
125,124,124,124,122,124,124,124,0,1764984221.7454655
125,124,124,124,123,124,124,124,0,1764984221.74547
125,124,124,124,124,124,124,124,0,1764984221.745474
125,124,125,125,126,124,124,124,0,1764984221.7454839
125,124,125,125,126,125,125,125,0,1764984221.765638
126,124,125,125,124,125,125,125,0,1764984221.7656443
126,125,125,125,123,125,125,125,0,1764984221.765649
127,125,125,125,122,125,125,125,0,1764984221.7656538
127,126,125,125,122,125,125,125,0,1764984221.7656586
127,126,125,125,122,125,125,125,0,1764984221.7656631
127,126,125,125,123,125,125,125,0,1764984221.765668
126,126,125,125,123,124,124,125,0,1764984221.7656727
126,125,125,125,124,125,124,125,0,1764984221.7656772
126,125,125,124,124,125,125,125,0,1764984221.765682
126,125,125,124,124,125,125,125,0,1764984221.7656868
126,124,125,124,125,125,125,125,0,1764984221.765698
126,125,125,124,125,125,125,125,0,1764984221.7657032
126,125,125,125,126,125,125,125,0,1764984221.7657077
126,125,125,125,126,125,125,125,0,1764984221.7657125
127,125,125,125,126,125,125,125,0,1764984221.7657232
127,125,125,125,126,125,125,125,0,1764984221.8163054
126,125,125,125,125,125,124,125,0,1764984221.8163126
126,125,124,125,125,125,124,125,0,1764984221.8163176
126,125,124,125,124,125,124,125,0,1764984221.816322
126,124,125,124,123,125,124,125,0,1764984221.816336
126,124,125,124,124,125,124,125,0,1764984221.816341
126,125,125,125,125,125,125,125,0,1764984221.8163457
126,125,125,125,125,125,125,125,0,1764984221.8163502
126,125,125,125,126,125,125,125,0,1764984221.8163545
126,125,125,125,126,125,125,125,0,1764984221.8163586
126,125,125,125,125,125,125,125,0,1764984221.816363
126,125,125,125,124,125,125,125,0,1764984221.8163674
126,125,125,124,123,125,125,125,0,1764984221.8163717
126,125,125,125,123,125,125,125,0,1764984221.816376
126,125,124,125,122,124,124,125,0,1764984221.8163805
126,125,125,124,123,125,124,125,0,1764984221.8163989
126,125,125,124,124,125,125,125,0,1764984221.8367398
127,125,125,125,125,125,125,125,0,1764984221.8367474
127,125,125,124,126,125,125,125,0,1764984221.8367527
127,125,125,124,127,125,125,125,0,1764984221.8367574
126,126,125,125,127,125,125,125,0,1764984221.8367624
126,126,125,125,126,125,125,125,0,1764984221.8367667
126,125,125,125,125,125,124,125,0,1764984221.8367712
125,124,125,125,125,125,125,125,0,1764984221.8367758
125,124,125,125,125,125,125,125,0,1764984221.83678
126,124,125,125,125,125,125,125,0,1764984221.8367844
126,124,125,125,126,125,125,125,0,1764984221.836789
127,125,125,125,125,125,125,126,0,1764984221.8367932
127,125,125,125,124,125,125,126,0,1764984221.8367977
127,125,125,125,124,125,125,125,0,1764984221.8368018
127,125,125,125,125,125,125,125,0,1764984221.836806
127,125,125,125,125,125,125,125,0,1764984221.8368173
126,125,125,125,126,125,125,125,0,1764984221.8875408
126,125,124,125,126,125,125,125,0,1764984221.8875487
126,125,125,125,126,125,125,125,0,1764984221.8875537
126,125,125,125,125,125,125,125,0,1764984221.8875587
126,125,125,125,125,125,125,125,0,1764984221.8875632
126,125,125,125,123,125,125,125,0,1764984221.8875678
126,125,125,125,123,125,125,125,0,1764984221.8875725
126,125,125,124,123,125,125,125,0,1764984221.8875768
126,125,125,124,123,125,125,125,0,1764984221.8875813
126,125,125,125,123,125,125,125,0,1764984221.887586
126,125,125,124,125,125,125,125,0,1764984221.8875902
126,125,125,125,125,125,125,125,0,1764984221.8875945
126,125,125,125,125,125,125,125,0,1764984221.8875988
126,125,125,125,125,125,125,125,0,1764984221.8876033
126,125,125,124,123,124,125,125,0,1764984221.8876145
126,124,125,125,122,125,125,125,0,1764984221.8876266
126,124,125,125,123,125,125,125,0,1764984221.9079368
127,125,125,125,124,125,125,125,0,1764984221.9079442
127,125,126,125,126,125,125,125,0,1764984221.9079492
127,125,125,125,126,125,125,125,0,1764984221.9079542
126,125,125,125,126,125,125,125,0,1764984221.9079585
126,125,124,125,126,125,125,125,0,1764984221.907963
125,125,124,125,124,125,125,125,0,1764984221.9079678
125,124,124,124,123,124,124,125,0,1764984221.907972
125,124,124,124,123,125,124,125,0,1764984221.9079766
126,124,125,125,123,125,124,125,0,1764984221.9079814
127,124,125,125,124,125,124,125,0,1764984221.9079857
127,125,125,125,125,125,124,125,0,1764984221.9079902
127,125,125,125,125,125,125,125,0,1764984221.9079945
127,125,125,125,125,125,125,125,0,1764984221.9079993
126,125,125,125,124,125,125,125,0,1764984221.9080038
126,125,125,125,124,125,125,125,0,1764984221.908016
126,125,125,125,124,125,125,125,0,1764984221.9485435
126,124,125,124,125,125,125,125,0,1764984221.9485483
126,125,125,124,126,125,125,125,0,1764984221.948551
126,125,125,124,126,125,125,125,0,1764984221.9485533
126,125,125,124,126,125,124,125,0,1764984221.9485555
126,125,125,124,125,125,124,125,0,1764984221.948558
126,125,126,124,124,125,125,125,0,1764984221.948564
126,125,125,125,124,125,125,125,0,1764984221.9485662
126,125,125,125,124,125,125,125,0,1764984221.9485686
126,125,125,125,124,125,125,125,0,1764984221.9485767
126,125,125,125,125,125,125,125,0,1764984221.948579
126,125,125,125,125,125,125,125,0,1764984221.9485812
126,125,125,125,126,125,125,125,0,1764984221.9485834
126,125,125,125,126,125,125,125,0,1764984221.9485855
126,125,125,124,125,125,125,125,0,1764984221.9485888
126,125,125,125,125,125,125,125,0,1764984221.9485915
126,125,125,125,124,125,125,125,0,1764984221.968848
126,125,125,125,123,125,125,125,0,1764984221.968852
126,125,125,125,124,125,125,125,0,1764984221.9688544
126,125,125,125,124,125,125,125,0,1764984221.968857
126,125,125,125,124,125,125,125,0,1764984221.9688594
126,125,125,125,124,125,125,125,0,1764984221.9688613
126,125,125,124,124,125,125,125,0,1764984221.9688637
126,125,125,124,123,124,125,125,0,1764984221.968866
126,125,125,124,122,125,124,124,0,1764984221.9688683
126,125,125,124,123,124,124,125,0,1764984221.968871
126,125,124,125,124,124,124,125,0,1764984221.9688733
126,125,125,125,126,125,125,125,0,1764984221.9789844
126,125,125,125,127,125,125,125,0,1764984221.9789882
126,125,125,126,127,125,125,125,0,1764984221.9789908
126,125,125,125,126,125,125,125,0,1764984221.978993
127,125,125,125,125,125,125,125,0,1764984221.9789958
126,125,125,125,124,125,125,125,0,1764984221.9992168
126,124,125,125,123,125,124,125,0,1764984221.999221
126,124,125,125,123,125,124,125,0,1764984221.999228
126,125,125,125,123,125,125,125,0,1764984221.9992304
126,125,125,125,124,125,125,125,0,1764984221.9992325
127,125,125,125,124,125,125,125,0,1764984221.999235
127,126,125,125,124,125,125,125,0,1764984221.999237
127,125,125,125,125,125,125,125,0,1764984221.9992394
127,125,125,125,126,125,125,125,0,1764984221.9992418
126,125,125,125,125,125,125,125,0,1764984221.999244
126,125,125,125,125,125,125,125,0,1764984221.9992461
126,124,125,125,125,125,125,125,0,1764984221.9992483
125,124,124,125,126,125,124,125,0,1764984221.9992507
125,124,124,124,124,124,124,124,0,1764984221.9992528
125,124,124,124,123,124,124,125,0,1764984221.9992547
125,124,124,124,123,124,124,125,0,1764984221.9992573
126,124,125,124,122,124,125,125,0,1764984222.0395892
126,125,125,124,122,125,125,125,0,1764984222.039594
126,125,125,125,124,125,125,125,0,1764984222.0395966
126,125,126,125,126,125,125,125,0,1764984222.0396037
127,125,126,125,126,125,125,125,0,1764984222.0396218
127,125,125,125,127,125,125,126,0,1764984222.0396245
127,125,125,125,127,125,125,125,0,1764984222.0396261
126,125,125,124,126,125,125,125,0,1764984222.0396354
126,125,125,124,124,125,125,125,0,1764984222.03964
126,125,125,125,123,125,124,125,0,1764984222.0396419
126,125,125,125,122,124,125,125,0,1764984222.0396433
126,125,125,125,122,124,125,125,0,1764984222.0396485
126,126,125,125,123,125,125,125,0,1764984222.0396502
127,126,125,125,124,125,125,125,0,1764984222.039652
126,125,125,125,126,125,125,125,0,1764984222.0396569
126,125,125,125,126,125,125,125,0,1764984222.0396597
126,125,125,125,126,125,125,125,0,1764984222.0598485
126,124,125,125,126,125,125,125,0,1764984222.0598512
126,124,124,125,125,125,125,125,0,1764984222.0598536
126,124,125,124,124,125,125,125,0,1764984222.059856
126,125,125,124,125,125,125,125,0,1764984222.0598578
126,125,125,124,126,125,125,125,0,1764984222.0598602
126,125,125,125,125,125,124,125,0,1764984222.0598624
126,125,125,125,126,125,125,125,0,1764984222.0598645
126,125,125,125,125,125,125,125,0,1764984222.0598667
126,125,125,125,124,125,125,125,0,1764984222.0598686
127,125,125,125,124,125,125,125,0,1764984222.0598707
126,125,125,125,125,125,125,125,0,1764984222.0598729
126,125,125,125,126,125,125,125,0,1764984222.059875
126,125,125,125,126,125,124,125,0,1764984222.0598772
126,125,125,125,126,125,124,125,0,1764984222.0598838
126,125,125,125,126,125,125,125,0,1764984222.059886
126,125,125,125,125,125,125,125,0,1764984222.110305
126,125,125,124,123,124,125,125,0,1764984222.1103098
126,125,125,125,123,124,125,125,0,1764984222.1103125
126,125,125,125,122,125,125,125,0,1764984222.1103148
126,124,125,125,122,125,125,125,0,1764984222.1103215
126,124,125,125,123,125,125,125,0,1764984222.110328
126,124,125,125,124,125,125,125,0,1764984222.1103306
126,125,125,125,125,125,125,125,0,1764984222.110333
127,125,125,125,125,125,125,126,0,1764984222.1103356
127,125,125,125,124,125,125,125,0,1764984222.1103377
126,125,125,125,124,125,125,125,0,1764984222.11034
126,125,125,125,124,125,125,125,0,1764984222.110342
126,125,125,125,124,125,125,125,0,1764984222.1103446
126,125,125,125,125,125,125,125,0,1764984222.1103468
127,125,125,125,126,125,125,125,0,1764984222.1103544
127,125,125,125,126,125,125,125,0,1764984222.110357
127,125,125,125,125,125,125,125,0,1764984222.1304781
126,124,125,125,125,125,125,125,0,1764984222.1304817
125,124,125,124,125,125,124,125,0,1764984222.1304839
125,125,125,124,124,124,124,125,0,1764984222.1304862
126,125,125,125,125,124,125,125,0,1764984222.1304889
126,125,125,125,126,124,125,125,0,1764984222.1304944
126,125,125,125,126,124,125,125,0,1764984222.130497
127,125,125,125,125,125,125,125,0,1764984222.1304994
126,125,125,125,124,125,125,125,0,1764984222.1305013
126,125,125,125,123,125,125,125,0,1764984222.1305037
126,125,125,125,122,125,125,125,0,1764984222.1305058
126,125,125,125,122,125,125,125,0,1764984222.1305077
127,125,125,125,123,125,125,125,0,1764984222.13051
127,125,125,125,123,125,125,125,0,1764984222.1305125
126,125,125,125,124,125,125,125,0,1764984222.1305144
126,125,125,125,124,125,125,125,0,1764984222.1305177
126,125,125,125,125,125,125,125,0,1764984222.1506977
126,125,125,125,124,125,125,125,0,1764984222.1507018
126,125,125,125,124,125,125,125,0,1764984222.1507044
126,125,125,124,125,125,125,126,0,1764984222.1507068
126,125,125,125,125,125,125,125,0,1764984222.1507092
127,125,125,125,125,125,125,125,0,1764984222.1507115
126,125,125,125,126,125,125,125,0,1764984222.150714
126,125,125,125,127,125,124,125,0,1764984222.1507158
126,125,125,125,126,125,124,125,0,1764984222.1507213
126,125,125,125,126,125,124,125,0,1764984222.1507237
126,124,125,125,125,125,124,125,0,1764984222.150726
126,124,125,125,125,125,124,125,0,1764984222.1507282
126,125,125,124,124,125,125,125,0,1764984222.1507306
126,125,125,124,125,125,125,125,0,1764984222.1507325
126,125,125,125,125,125,125,125,0,1764984222.150735
126,125,125,125,126,125,125,125,0,1764984222.1507416
126,125,125,125,125,125,125,125,0,1764984222.201206
126,125,125,125,125,125,125,125,0,1764984222.2012098
126,125,125,125,125,125,124,125,0,1764984222.2012122
126,125,125,124,123,124,124,125,0,1764984222.2012146
126,125,124,124,122,124,124,125,0,1764984222.2012167
126,125,125,124,123,124,124,125,0,1764984222.201219
126,125,125,124,123,125,125,125,0,1764984222.2012212
126,125,125,125,123,125,125,125,0,1764984222.2012284
126,125,125,125,124,125,125,125,0,1764984222.2012305
126,125,125,125,124,126,125,125,0,1764984222.2012336
126,125,125,125,123,125,125,125,0,1764984222.201236
126,125,125,125,122,125,125,125,0,1764984222.201238
126,125,125,125,122,125,124,125,0,1764984222.2012403
126,125,125,124,122,125,125,125,0,1764984222.2012427
126,125,125,124,123,125,125,125,0,1764984222.2012534
126,125,125,124,124,125,125,125,0,1764984222.201256
126,125,125,125,126,125,125,125,0,1764984222.2214193
127,125,125,125,126,125,125,125,0,1764984222.2214231
126,125,125,125,125,125,125,125,0,1764984222.2214253
126,125,125,125,125,125,125,125,0,1764984222.221428
126,125,125,125,124,125,125,125,0,1764984222.2214303
127,125,125,125,123,125,125,125,0,1764984222.2214327
127,125,125,125,123,125,125,125,0,1764984222.2214384
126,125,125,125,124,125,125,125,0,1764984222.2214408
126,125,125,125,124,125,125,125,0,1764984222.2214434
126,125,125,125,125,125,125,125,0,1764984222.2214453
125,124,125,125,125,125,124,125,0,1764984222.2214477
125,124,125,124,124,125,124,125,0,1764984222.2214496
126,125,125,125,125,125,125,125,0,1764984222.221452
126,125,125,125,124,125,125,125,0,1764984222.2214541
126,125,125,125,124,125,125,125,0,1764984222.2214563
126,125,125,125,124,125,125,125,0,1764984222.2214594
126,125,125,125,125,125,125,125,0,1764984222.2617447
126,124,125,125,125,125,124,125,0,1764984222.2617486
126,125,125,124,124,125,124,125,0,1764984222.261751
126,125,124,124,124,125,124,125,0,1764984222.2617533
126,125,124,124,123,125,124,125,0,1764984222.261756
126,125,124,124,123,124,124,125,0,1764984222.261758
127,125,125,125,123,125,125,125,0,1764984222.2617607
126,125,125,125,125,125,125,125,0,1764984222.261763
126,125,125,125,126,125,125,125,0,1764984222.2617655
126,125,125,126,128,125,125,125,0,1764984222.2617676
126,125,125,125,129,125,125,125,0,1764984222.26177
126,125,125,125,128,125,125,125,0,1764984222.2617757
126,124,125,125,127,125,125,125,0,1764984222.2617779
126,125,125,125,125,124,125,125,0,1764984222.2617805
126,125,125,124,123,125,125,125,0,1764984222.261783
126,125,125,124,122,125,125,125,0,1764984222.2617857
126,125,125,124,122,125,125,125,0,1764984222.29205
126,125,125,125,124,125,125,125,0,1764984222.292054
126,125,125,125,124,125,125,125,0,1764984222.2920563
126,125,125,125,125,125,125,125,0,1764984222.292059
126,125,125,125,125,125,125,125,0,1764984222.2920613
126,125,125,125,125,125,125,125,0,1764984222.2920637
126,125,124,125,124,125,124,125,0,1764984222.2920659
126,124,124,124,123,124,124,124,0,1764984222.292068
126,124,124,124,123,125,124,125,0,1764984222.2920704
126,124,124,125,124,125,124,124,0,1764984222.2920728
126,124,125,125,124,125,124,125,0,1764984222.2920802
126,125,125,125,124,125,125,125,0,1764984222.2920825
126,125,125,125,125,125,125,125,0,1764984222.2920847
126,125,125,125,125,125,125,125,0,1764984222.2920868
126,125,125,125,124,125,125,125,0,1764984222.2920887
126,125,125,125,124,125,125,125,0,1764984222.2920914
126,125,125,125,124,125,125,125,0,1764984222.3325305
126,125,125,125,124,125,125,126,0,1764984222.3325346
126,125,125,125,124,125,125,125,0,1764984222.332537
126,124,125,125,124,125,124,125,0,1764984222.332539
126,124,125,124,125,124,124,125,0,1764984222.3325417
126,124,125,124,125,124,124,124,0,1764984222.3325438
126,124,125,124,124,124,124,124,0,1764984222.3325458
126,125,125,124,125,125,125,125,0,1764984222.3325481
126,125,125,124,125,125,125,125,0,1764984222.33255
126,125,125,124,125,125,125,125,0,1764984222.3325524
126,125,125,125,125,125,125,125,0,1764984222.3325546
126,125,125,125,125,125,125,125,0,1764984222.3325603
126,125,125,125,124,125,125,125,0,1764984222.3325627
126,124,125,124,122,125,124,125,0,1764984222.332565
126,125,125,124,121,125,124,125,0,1764984222.3325753
126,125,125,124,121,125,124,125,0,1764984222.332578
126,125,125,124,122,124,124,125,0,1764984222.3527274
126,125,125,124,124,124,124,125,0,1764984222.3527312
126,125,125,125,125,125,125,125,0,1764984222.3527334
126,125,125,125,127,125,125,125,0,1764984222.352736
126,125,125,125,127,125,125,125,0,1764984222.3527384
126,125,125,125,126,125,125,125,0,1764984222.3527408
126,125,125,125,125,125,125,125,0,1764984222.3527434
126,125,125,125,125,125,125,125,0,1764984222.3527455
126,125,125,125,125,125,125,125,0,1764984222.3527477
126,125,125,125,125,125,125,125,0,1764984222.35275
126,125,125,125,125,125,125,125,0,1764984222.3527522
126,125,125,125,125,125,125,125,0,1764984222.352759
126,125,125,125,125,125,125,125,0,1764984222.3527613
127,125,125,125,124,125,125,125,0,1764984222.3527637
127,125,125,125,124,125,125,125,0,1764984222.352766
126,125,125,125,124,125,125,125,0,1764984222.3527694
126,124,124,125,123,125,125,125,0,1764984222.3830373
125,124,124,125,122,125,125,125,0,1764984222.3830419
125,124,125,125,123,125,125,125,0,1764984222.3830447
126,124,125,125,124,125,125,125,0,1764984222.383047
126,125,125,125,125,125,125,125,0,1764984222.3830497
127,125,125,125,126,125,125,125,0,1764984222.3830523
127,125,125,125,125,125,125,126,0,1764984222.3830545
127,125,125,125,124,125,125,126,0,1764984222.3830569
127,125,125,125,123,125,125,126,0,1764984222.3830593
127,125,125,124,122,125,125,125,0,1764984222.3830616
127,125,125,125,122,125,125,125,0,1764984222.3830638
127,125,125,125,123,125,125,125,0,1764984222.3830662
126,125,125,125,124,125,125,125,0,1764984222.383068
126,125,125,125,125,125,124,125,0,1764984222.3830707
126,125,125,125,126,125,125,125,0,1764984222.3830786
126,125,125,125,125,125,125,125,0,1764984222.383082
126,125,125,125,125,125,125,125,0,1764984222.4234025
127,125,125,125,125,125,125,125,0,1764984222.4234054
127,125,125,125,124,125,125,125,0,1764984222.4234078
127,125,125,125,125,125,125,125,0,1764984222.4234102
126,125,125,125,125,125,125,125,0,1764984222.4234126
126,125,125,125,126,125,125,125,0,1764984222.4234147
126,125,125,125,126,125,125,125,0,1764984222.423417
126,125,125,125,126,125,125,125,0,1764984222.4234197
125,124,125,124,124,124,124,125,0,1764984222.4234216
126,124,125,124,124,124,124,125,0,1764984222.423424
126,124,125,124,125,125,125,125,0,1764984222.4234264
126,124,125,125,125,125,125,125,0,1764984222.4234283
126,124,125,125,125,125,125,125,0,1764984222.4234307
127,125,126,125,126,125,125,125,0,1764984222.4234326
128,126,126,125,126,125,125,125,0,1764984222.4234347
127,125,125,125,125,125,125,125,0,1764984222.4234376
127,125,125,125,123,125,125,125,0,1764984222.4435635
126,125,125,124,122,125,125,125,0,1764984222.4435675
126,125,125,124,122,125,125,125,0,1764984222.4435701
125,124,124,124,122,125,124,125,0,1764984222.4435725
126,124,124,124,122,125,124,125,0,1764984222.4435751
126,125,125,125,123,125,124,125,0,1764984222.443577
126,125,125,125,124,125,124,125,0,1764984222.4435794
127,125,125,125,125,125,125,125,0,1764984222.4435816
127,126,126,125,123,125,125,125,0,1764984222.443584
127,126,126,125,123,125,125,125,0,1764984222.443593
127,126,126,125,124,125,125,125,0,1764984222.4435954
127,125,125,125,124,125,125,125,0,1764984222.4435978
126,124,125,125,125,125,125,125,0,1764984222.4436
126,123,124,125,126,125,125,125,0,1764984222.4436035
125,123,124,125,127,125,124,125,0,1764984222.4436054
125,124,124,125,128,124,125,125,0,1764984222.443608
126,125,124,125,127,124,125,125,0,1764984222.4940991
126,125,125,125,127,124,125,125,0,1764984222.494104
127,126,125,125,126,125,125,125,0,1764984222.494106
127,126,126,125,125,125,125,125,0,1764984222.4941087
127,126,126,125,124,125,125,125,0,1764984222.4941113
127,125,125,125,124,125,125,125,0,1764984222.4941137
127,125,125,125,123,125,125,125,0,1764984222.494116
126,125,125,125,124,125,125,125,0,1764984222.4941185
125,125,124,125,123,124,124,125,0,1764984222.4941206
125,124,124,125,123,125,124,125,0,1764984222.494123
125,124,124,124,122,125,124,125,0,1764984222.4941251
125,124,125,124,122,125,125,125,0,1764984222.4941273
126,124,125,124,122,125,125,125,0,1764984222.4941297
126,125,125,124,124,125,125,125,0,1764984222.4941323
127,125,126,125,126,125,125,125,0,1764984222.4941344
127,125,125,125,126,125,125,125,0,1764984222.4941413
127,125,125,125,127,125,125,125,0,1764984222.5344667
127,125,125,125,126,125,125,125,0,1764984222.5344708
127,125,125,125,125,125,125,125,0,1764984222.5344734
126,125,125,124,124,124,124,125,0,1764984222.534476
126,125,125,124,124,125,125,125,0,1764984222.5344787
126,125,125,124,124,125,125,125,0,1764984222.5344844
126,125,125,124,124,125,125,125,0,1764984222.5344868
126,125,125,125,124,125,125,125,0,1764984222.5344892
126,125,125,125,124,125,125,125,0,1764984222.5344915
126,125,125,125,123,125,125,125,0,1764984222.5344937
126,125,125,125,122,125,125,125,0,1764984222.534496
126,125,125,125,122,125,125,125,0,1764984222.5345016
126,125,125,125,123,125,125,125,0,1764984222.534504
126,125,125,125,124,125,125,125,0,1764984222.5345063
126,125,125,125,125,125,125,125,0,1764984222.5345082
126,125,125,125,126,125,125,125,0,1764984222.5345104
126,125,125,125,126,125,124,125,0,1764984222.534513
127,125,125,125,126,125,124,125,0,1764984222.5345151
127,125,125,124,126,124,124,125,0,1764984222.5345173
126,125,125,124,126,125,125,125,0,1764984222.5345192
126,125,125,124,126,125,125,125,0,1764984222.5345213
126,125,125,124,125,125,125,125,0,1764984222.5345237
126,125,125,124,125,125,125,125,0,1764984222.5345259
127,125,125,125,125,125,125,125,0,1764984222.534528
127,125,125,125,124,125,125,125,0,1764984222.5345304
126,124,125,125,124,125,124,125,0,1764984222.5345323
126,125,125,125,123,125,124,125,0,1764984222.5345345
126,125,125,125,123,125,124,125,0,1764984222.5345366
125,125,124,125,122,124,124,125,0,1764984222.534539
126,125,125,125,122,124,124,125,0,1764984222.5345411
126,125,125,125,122,125,125,125,0,1764984222.5345433
126,125,125,125,123,125,125,125,0,1764984222.5345464
126,125,125,125,124,125,125,125,0,1764984222.5748806
127,125,125,125,125,125,125,125,0,1764984222.574884
127,125,125,124,125,125,125,125,0,1764984222.574886
127,125,125,124,125,125,125,125,0,1764984222.5748887
127,125,125,124,125,125,125,125,0,1764984222.5748947
126,125,125,124,125,125,125,125,0,1764984222.574897
126,125,125,125,127,125,125,125,0,1764984222.5748994
126,125,125,125,127,125,125,125,0,1764984222.5749018
126,125,125,125,127,125,125,125,0,1764984222.5749042
126,125,125,125,126,125,125,125,0,1764984222.5749066
126,125,125,125,124,125,125,125,0,1764984222.5749116
126,125,125,125,123,125,125,125,0,1764984222.5850198
126,125,125,125,123,125,125,125,0,1764984222.5850232
126,125,125,125,122,125,125,125,0,1764984222.5850272
127,125,126,125,123,125,125,125,0,1764984222.5850298
127,125,126,125,124,125,125,125,0,1764984222.5850322
126,125,125,125,125,125,125,125,0,1764984222.605212
126,125,125,125,125,125,125,125,0,1764984222.6052244
126,125,125,125,125,125,125,125,0,1764984222.605227
126,125,125,125,125,125,125,125,0,1764984222.605231
126,125,125,125,125,125,125,125,0,1764984222.6052334
126,125,125,125,125,125,125,125,0,1764984222.6052358
126,125,125,125,125,125,125,125,0,1764984222.6052377
127,125,125,125,125,125,125,125,0,1764984222.60524
126,125,125,125,126,125,125,125,0,1764984222.605242
126,125,125,125,126,125,125,125,0,1764984222.605248
126,125,125,125,125,125,125,125,0,1764984222.6052501
126,125,125,125,124,125,125,124,0,1764984222.605252
126,125,124,124,123,125,125,124,0,1764984222.6052544
126,125,125,124,122,125,125,125,0,1764984222.6052566
126,125,125,124,122,125,125,125,0,1764984222.6052585
126,125,125,124,124,125,125,125,0,1764984222.6052613
126,125,125,125,125,125,125,125,0,1764984222.645556
127,125,125,125,125,125,125,126,0,1764984222.645561
127,125,125,125,125,125,125,126,0,1764984222.645564
127,125,125,125,125,125,125,126,0,1764984222.6455667
127,125,125,125,123,125,125,125,0,1764984222.6455693
126,125,125,125,123,125,125,125,0,1764984222.645572
126,124,125,125,123,125,125,125,0,1764984222.6455739
125,124,125,125,125,125,125,125,0,1764984222.6455762
126,125,125,125,125,125,125,125,0,1764984222.6455784
126,125,125,125,126,125,125,125,0,1764984222.645581
126,125,125,125,127,125,125,125,0,1764984222.6455834
126,125,125,125,126,125,125,125,0,1764984222.6455858
127,125,125,125,124,125,125,125,0,1764984222.6455877
127,125,125,125,123,125,125,125,0,1764984222.64559
127,125,125,125,122,125,125,125,0,1764984222.645592
126,125,125,125,122,125,125,125,0,1764984222.6456003
126,125,124,124,124,125,124,125,0,1764984222.665805
126,125,124,124,125,125,124,124,0,1764984222.6658082
126,125,125,124,126,125,124,124,0,1764984222.6658103
126,125,125,124,126,125,125,124,0,1764984222.6658165
126,125,125,125,125,125,125,125,0,1764984222.665819
127,125,126,125,124,125,125,125,0,1764984222.665821
126,125,126,125,123,125,125,125,0,1764984222.6658235
126,125,125,125,123,125,125,125,0,1764984222.6658258
126,125,125,125,123,125,125,125,0,1764984222.6658278
126,125,125,124,124,125,125,125,0,1764984222.6658337
126,125,124,124,125,125,125,125,0,1764984222.665836
126,125,125,125,125,125,125,125,0,1764984222.6658416
126,125,125,125,125,125,125,125,0,1764984222.665844
126,124,125,125,125,125,125,125,0,1764984222.6658463
126,125,125,125,124,125,125,125,0,1764984222.6658518
126,125,125,125,125,125,125,125,0,1764984222.665855
126,125,125,125,126,125,125,125,0,1764984222.7162867
127,125,125,125,126,125,125,125,0,1764984222.71629
127,125,125,125,126,125,125,125,0,1764984222.7162924
127,125,125,125,125,125,125,125,0,1764984222.7162948
126,125,125,125,124,125,125,125,0,1764984222.7162967
126,125,125,125,123,125,125,125,0,1764984222.7162993
126,125,124,125,121,125,124,125,0,1764984222.716309
126,125,124,125,122,124,124,125,0,1764984222.7163122
126,125,125,124,124,125,125,125,0,1764984222.7163143
127,125,125,125,126,125,125,125,0,1764984222.7163165
127,125,125,125,128,125,125,125,0,1764984222.7163186
126,125,125,125,128,125,125,125,0,1764984222.7163208
126,125,125,125,127,125,125,125,0,1764984222.7163231
126,126,125,125,125,125,125,125,0,1764984222.7163312
126,125,125,125,124,125,125,125,0,1764984222.7163346
126,125,125,125,123,125,125,125,0,1764984222.7163377
126,125,125,125,123,124,125,125,0,1764984222.7566047
126,125,125,124,124,124,125,125,0,1764984222.756608
125,124,124,124,124,124,125,125,0,1764984222.7566106
125,124,125,125,125,124,124,125,0,1764984222.7566128
126,125,125,125,125,125,125,125,0,1764984222.7566152
126,125,125,125,123,125,125,125,0,1764984222.7566175
127,125,125,125,123,125,125,125,0,1764984222.7566195
127,125,125,125,122,125,125,125,0,1764984222.7566218
127,125,125,125,122,125,125,125,0,1764984222.756624
127,125,125,125,122,125,125,125,0,1764984222.756626
127,125,125,125,123,125,124,125,0,1764984222.7566283
127,125,125,125,124,124,125,125,0,1764984222.7566302
127,125,125,124,125,124,125,125,0,1764984222.7566323
126,125,125,124,125,125,125,125,0,1764984222.7566347
126,125,125,124,125,125,125,125,0,1764984222.7566366
126,125,125,125,124,125,125,126,0,1764984222.7566435
126,125,125,125,123,125,125,125,0,1764984222.7668262
126,125,125,124,123,125,125,125,0,1764984222.7668304
126,124,125,124,123,125,125,125,0,1764984222.7668328
126,125,125,124,123,125,125,125,0,1764984222.7668352
126,125,125,124,124,125,125,125,0,1764984222.7668374
127,125,125,124,125,125,125,125,0,1764984222.7668395
126,125,125,125,125,125,125,125,0,1764984222.7668417
126,125,125,125,124,125,124,125,0,1764984222.7668436
126,125,125,125,124,125,125,125,0,1764984222.7668457
126,124,125,125,124,125,125,125,0,1764984222.7668478
126,125,125,125,125,125,125,125,0,1764984222.7668498
126,126,125,125,127,125,125,125,0,1764984222.766852
126,125,125,125,127,125,125,125,0,1764984222.7668538
126,125,125,125,127,125,125,125,0,1764984222.766864
126,125,125,124,126,125,125,125,0,1764984222.7668662
126,125,125,124,124,125,124,125,0,1764984222.766868
126,124,125,124,123,125,124,125,0,1764984222.807269
126,125,124,125,122,125,125,125,0,1764984222.8072727
126,125,124,125,123,125,125,125,0,1764984222.807275
126,125,124,125,124,125,125,125,0,1764984222.8072772
127,125,125,125,124,125,125,125,0,1764984222.8072798
126,125,125,125,125,125,125,125,0,1764984222.807282
126,125,125,125,126,125,125,125,0,1764984222.807284
126,125,125,125,125,125,125,125,0,1764984222.8072863
126,125,126,125,124,125,125,125,0,1764984222.8072886
126,125,125,124,123,125,125,125,0,1764984222.8072906
127,125,125,124,124,125,125,125,0,1764984222.8072975
126,125,125,124,125,125,125,125,0,1764984222.8072996
126,125,125,125,125,125,125,125,0,1764984222.8073015
126,125,125,125,126,125,124,125,0,1764984222.807304
126,125,125,125,126,125,125,125,0,1764984222.807306
126,124,125,125,125,125,125,125,0,1764984222.8073084
126,125,125,125,123,125,125,125,0,1764984222.8274117
126,125,125,125,122,125,125,125,0,1764984222.8274148
126,125,125,125,122,125,125,125,0,1764984222.827417
126,125,125,125,123,125,125,125,0,1764984222.827419
126,125,124,125,124,125,125,125,0,1764984222.8274214
126,125,124,125,125,125,125,125,0,1764984222.8274238
126,124,124,125,126,125,124,125,0,1764984222.8274257
126,125,124,124,127,125,124,125,0,1764984222.827428
126,125,124,124,126,125,125,125,0,1764984222.8274302
126,125,125,124,125,125,125,125,0,1764984222.8274322
127,125,125,124,124,125,125,125,0,1764984222.8274343
127,125,125,124,124,125,125,125,0,1764984222.8274362
127,125,125,125,124,125,125,125,0,1764984222.8274386
127,125,125,125,124,125,125,125,0,1764984222.8274436
126,125,125,125,125,125,125,125,0,1764984222.8274457
126,125,125,125,124,125,125,125,0,1764984222.8274484
126,125,125,125,124,125,124,125,0,1764984222.877807
126,125,125,124,123,124,124,125,0,1764984222.87781
126,125,125,124,123,124,124,125,0,1764984222.8778124
126,125,125,124,123,124,124,125,0,1764984222.877815
126,125,125,124,124,125,125,125,0,1764984222.8778172
126,124,125,125,124,125,125,125,0,1764984222.8778195
126,125,125,125,125,125,125,125,0,1764984222.877822
127,125,125,125,125,125,125,125,0,1764984222.8778243
127,125,125,125,125,125,125,125,0,1764984222.8778265
127,126,125,125,124,125,125,125,0,1764984222.877829
127,126,126,125,123,125,125,125,0,1764984222.8778315
126,125,125,125,123,125,125,125,0,1764984222.8778338
126,125,125,125,124,125,125,125,0,1764984222.8778358
126,125,125,125,125,125,125,125,0,1764984222.877838
126,124,125,125,125,125,125,125,0,1764984222.8778465
126,124,125,125,126,125,125,125,0,1764984222.8778493
126,124,125,125,125,125,125,125,0,1764984222.898049
126,124,125,125,123,125,125,125,0,1764984222.8980517
126,125,125,125,122,125,125,125,0,1764984222.8980541
126,125,125,125,122,125,125,125,0,1764984222.8980565
126,125,125,125,123,125,124,125,0,1764984222.8980587
126,124,125,125,124,125,124,124,0,1764984222.8980608
126,124,124,124,124,124,124,124,0,1764984222.8980632
126,124,125,124,125,124,124,124,0,1764984222.8980653
126,124,125,124,125,124,124,124,0,1764984222.8980675
126,125,125,124,124,125,124,124,0,1764984222.8980699
126,125,125,124,123,125,125,125,0,1764984222.898072
126,125,125,125,123,125,125,125,0,1764984222.8980742
126,125,125,125,124,125,125,125,0,1764984222.898083
126,125,125,125,124,125,125,125,0,1764984222.8980854
126,125,125,125,125,125,125,125,0,1764984222.8980877
126,125,125,125,125,125,125,125,0,1764984222.89809
126,125,125,125,125,125,124,125,0,1764984222.9384065
127,125,125,125,125,125,124,125,0,1764984222.93841
127,124,125,125,125,125,124,125,0,1764984222.9384124
126,125,125,124,125,125,124,125,0,1764984222.9384146
126,125,125,125,126,125,124,125,0,1764984222.9384172
126,125,125,125,126,125,125,125,0,1764984222.9384193
126,125,125,125,126,125,125,125,0,1764984222.9384217
126,125,125,125,125,125,125,125,0,1764984222.938424
126,125,125,125,124,125,125,125,0,1764984222.938426
126,125,125,125,124,125,125,125,0,1764984222.9384284
126,125,125,125,123,125,125,125,0,1764984222.9384305
126,125,125,125,124,124,125,125,0,1764984222.9384325
126,125,124,124,125,124,124,125,0,1764984222.9384346
125,124,124,124,125,124,124,124,0,1764984222.9384367
126,125,124,124,126,124,124,124,0,1764984222.9384396
126,125,124,125,127,125,124,124,0,1764984222.9384427
126,125,125,125,126,125,124,125,0,1764984222.9686334
126,125,125,125,124,125,125,125,0,1764984222.9686368
126,125,125,125,123,125,125,125,0,1764984222.9686387
126,125,125,124,121,125,125,126,0,1764984222.9686408
126,125,125,124,121,125,125,126,0,1764984222.9686422
127,125,125,124,123,125,125,125,0,1764984222.9686444
126,125,125,125,125,125,125,125,0,1764984222.968646
126,125,125,125,126,125,125,125,0,1764984222.9686522
126,125,125,125,127,125,124,125,0,1764984222.9686542
126,125,125,125,127,125,124,125,0,1764984222.9686558
126,125,125,125,126,125,124,125,0,1764984222.9686575
126,125,125,125,124,125,125,125,0,1764984222.9686592
126,124,125,125,123,125,125,125,0,1764984222.9686618
127,125,125,125,122,125,125,125,0,1764984222.9686635
127,125,125,125,122,125,125,125,0,1764984222.9686654
127,125,125,125,123,125,125,125,0,1764984222.9686675
127,125,125,125,123,125,125,125,0,1764984222.9888785
126,125,125,124,123,124,125,125,0,1764984222.9888818
126,125,125,124,124,124,125,125,0,1764984222.9888842
126,125,125,125,123,124,125,125,0,1764984222.9888866
126,125,125,125,122,125,125,125,0,1764984222.9888887
126,125,125,125,123,125,124,125,0,1764984222.988891
127,125,125,125,124,125,125,125,0,1764984222.9888933
127,125,125,125,125,125,125,125,0,1764984222.9889016
127,125,125,125,126,125,125,125,0,1764984222.988904
127,126,125,125,127,125,125,125,0,1764984222.9889061
126,125,125,125,126,125,125,125,0,1764984222.9889085
126,125,125,125,125,125,124,125,0,1764984222.9889107
126,124,125,124,124,125,124,125,0,1764984222.9889162
126,124,125,124,124,125,124,125,0,1764984222.9889183
126,124,125,124,124,125,124,125,0,1764984222.9889207
126,124,125,124,124,125,124,125,0,1764984222.9889264
126,125,125,125,124,125,125,125,0,1764984223.0292904
126,125,125,125,125,125,125,125,0,1764984223.0292966
126,125,125,125,125,125,125,125,0,1764984223.029299
126,125,125,125,124,125,125,125,0,1764984223.0293012
126,125,125,125,123,125,125,125,0,1764984223.0293036
126,125,125,125,123,125,125,125,0,1764984223.0293057
126,125,125,124,123,125,125,125,0,1764984223.0293078
126,125,125,125,123,125,125,125,0,1764984223.0293102
126,125,125,125,125,125,125,125,0,1764984223.0293126
126,125,125,125,126,125,125,125,0,1764984223.0293145
126,124,125,125,126,125,124,125,0,1764984223.029317
126,125,125,125,126,125,125,125,0,1764984223.0293193
126,125,125,125,125,125,125,125,0,1764984223.0293214
127,125,125,125,125,125,125,125,0,1764984223.0293255
126,125,125,125,124,125,125,125,0,1764984223.0293293
126,125,125,125,124,125,125,125,0,1764984223.0293334
126,125,125,125,125,125,125,125,0,1764984223.0494552
125,124,125,125,126,124,124,124,0,1764984223.0494585
125,124,124,125,125,124,124,124,0,1764984223.0494602
126,124,124,125,125,124,124,125,0,1764984223.049467
126,124,124,125,125,124,124,125,0,1764984223.0494697
126,124,124,125,124,125,124,125,0,1764984223.049472
126,125,125,125,124,125,125,125,0,1764984223.049474
126,125,125,125,125,125,125,125,0,1764984223.0494761
126,124,125,125,125,125,125,125,0,1764984223.0494783
126,124,125,125,126,125,125,125,0,1764984223.0494838
126,125,125,125,126,125,125,125,0,1764984223.0494862
126,125,125,125,125,125,125,125,0,1764984223.0494883
126,125,125,125,125,125,125,125,0,1764984223.0494905
127,125,125,125,123,125,125,125,0,1764984223.0494926
127,125,125,125,121,125,125,125,0,1764984223.0494945
126,125,125,125,121,125,125,125,0,1764984223.0494974
126,125,125,125,122,125,125,125,0,1764984223.100195
126,125,124,125,123,125,125,125,0,1764984223.100199
126,125,125,125,125,125,125,125,0,1764984223.1002014
126,125,125,125,126,125,125,125,0,1764984223.100204
126,125,125,125,126,125,125,125,0,1764984223.1002061
126,125,125,125,125,125,125,125,0,1764984223.1002083
126,125,125,125,124,125,125,125,0,1764984223.1002104
126,125,125,125,124,125,125,125,0,1764984223.1002126
126,125,125,125,125,125,125,125,0,1764984223.1002147
126,125,125,125,126,125,125,125,0,1764984223.1002169
126,125,125,125,127,125,125,125,0,1764984223.1002188
126,125,125,124,127,125,125,125,0,1764984223.100221
126,125,125,124,127,125,125,125,0,1764984223.1002297
127,125,125,125,125,125,125,125,0,1764984223.1002316
127,125,125,125,123,125,125,125,0,1764984223.100234
126,125,125,125,123,125,125,125,0,1764984223.1002362
126,125,125,125,123,125,125,125,0,1764984223.140772
126,124,125,125,122,125,125,125,0,1764984223.1407766
126,124,125,125,123,125,125,125,0,1764984223.1407847
126,125,125,125,124,125,125,125,0,1764984223.1407871
126,125,125,125,124,125,125,125,0,1764984223.1407893
126,125,126,125,124,125,125,125,0,1764984223.140792
126,126,125,125,124,125,125,125,0,1764984223.1407938
126,126,125,125,124,125,125,125,0,1764984223.1407964
126,125,125,124,124,125,125,125,0,1764984223.1407986
126,125,125,125,124,125,125,125,0,1764984223.140801
126,125,125,125,125,125,125,125,0,1764984223.1408093
126,125,125,125,124,125,124,125,0,1764984223.1408114
126,125,125,125,123,125,124,125,0,1764984223.1408138
126,125,125,125,123,125,124,125,0,1764984223.1408162
126,125,125,125,122,124,124,125,0,1764984223.140818
126,125,125,124,122,124,124,125,0,1764984223.1408207
126,125,125,124,123,125,125,125,0,1764984223.1509328
126,125,125,125,124,125,125,125,0,1764984223.1509368
127,125,125,125,124,125,125,125,0,1764984223.1509397
127,125,125,125,124,125,125,125,0,1764984223.1509418
126,125,125,125,125,125,125,125,0,1764984223.1509442
126,125,125,125,125,125,125,125,0,1764984223.1509466
126,124,125,125,125,125,124,125,0,1764984223.150949
126,124,125,124,125,125,124,124,0,1764984223.1509514
126,124,124,124,125,125,124,124,0,1764984223.1509538
126,125,125,124,124,125,124,124,0,1764984223.150956
127,125,125,125,124,125,125,125,0,1764984223.150958
126,125,125,125,125,125,125,125,0,1764984223.1509602
126,125,125,125,126,125,125,125,0,1764984223.1509624
126,125,125,125,126,125,125,125,0,1764984223.1509645
126,125,125,125,126,125,125,125,0,1764984223.150967
126,125,125,125,125,125,125,125,0,1764984223.1509693
127,126,125,125,123,125,125,125,0,1764984223.1914406
127,126,125,125,123,125,125,125,0,1764984223.1914446
126,125,125,125,123,125,125,125,0,1764984223.1914473
126,125,125,125,124,125,125,125,0,1764984223.1914496
126,124,125,125,124,125,125,125,0,1764984223.1914518
126,125,125,125,125,125,125,125,0,1764984223.1914542
126,125,125,125,124,125,125,125,0,1764984223.1914563
126,125,125,125,123,125,125,125,0,1764984223.1914585
126,125,125,124,124,125,125,125,0,1764984223.1914606
126,125,125,124,123,125,125,125,0,1764984223.191463
126,125,125,124,124,125,125,125,0,1764984223.1914651
126,125,125,124,125,125,125,125,0,1764984223.1914673
126,125,125,124,125,125,124,125,0,1764984223.1914697
126,125,125,125,124,125,124,125,0,1764984223.1914718
126,125,125,125,124,125,124,125,0,1764984223.1914742
126,125,125,125,123,125,124,125,0,1764984223.1914768
126,125,125,125,123,125,124,125,0,1764984223.211747
126,125,125,125,124,125,125,125,0,1764984223.211751
126,125,125,125,125,125,125,125,0,1764984223.2117534
127,125,125,125,125,125,125,125,0,1764984223.2117562
127,125,125,125,125,125,125,125,0,1764984223.2117586
126,125,125,125,127,125,125,125,0,1764984223.2117665
126,125,125,125,127,125,125,125,0,1764984223.2117736
126,125,125,125,127,125,125,125,0,1764984223.211777
126,125,125,125,126,125,124,125,0,1764984223.211779
126,125,125,125,125,125,124,125,0,1764984223.2117856
126,125,125,125,125,125,124,125,0,1764984223.2117877
126,125,125,125,124,125,124,125,0,1764984223.2117963
126,125,125,125,126,125,125,125,0,1764984223.2117982
126,124,125,125,126,125,125,125,0,1764984223.2118006
126,124,125,125,126,125,125,125,0,1764984223.211803
125,124,125,125,126,125,125,125,0,1764984223.2118053
125,124,125,124,126,125,125,125,0,1764984223.252221
126,124,124,124,124,124,124,125,0,1764984223.2522256
126,125,125,124,124,125,124,125,0,1764984223.252228
127,125,125,124,124,125,125,125,0,1764984223.2522304
127,125,125,124,124,125,125,125,0,1764984223.2522328
127,125,125,125,123,125,125,125,0,1764984223.252235
128,125,126,125,122,125,125,125,0,1764984223.252237
127,125,126,125,123,125,125,125,0,1764984223.2522395
127,124,125,125,123,125,125,125,0,1764984223.2522414
126,124,125,125,122,125,125,125,0,1764984223.2522438
126,124,125,124,122,125,125,125,0,1764984223.2522457
125,124,125,125,123,125,125,125,0,1764984223.252248
125,125,124,124,124,125,125,125,0,1764984223.2522502
126,125,125,125,125,125,125,125,0,1764984223.252252
126,125,125,125,126,125,125,125,0,1764984223.2522542
127,125,125,125,126,125,125,125,0,1764984223.252257
126,125,125,125,125,125,125,125,0,1764984223.2724793
126,125,125,125,125,125,125,125,0,1764984223.2724829
126,125,125,125,124,125,125,125,0,1764984223.2724855
126,125,125,125,125,125,125,125,0,1764984223.2724876
126,125,125,125,125,125,125,125,0,1764984223.27249
126,125,125,125,126,125,125,125,0,1764984223.2724922
126,125,125,125,126,125,125,125,0,1764984223.2724946
126,125,125,125,125,125,125,125,0,1764984223.2724967
126,125,125,125,125,125,125,125,0,1764984223.2724988
126,124,125,125,124,124,125,125,0,1764984223.272501
126,125,125,125,124,124,124,125,0,1764984223.2725034
126,125,125,124,124,124,124,125,0,1764984223.2725055
126,125,125,125,125,125,125,125,0,1764984223.2725077
126,125,125,125,125,125,125,125,0,1764984223.27251
127,125,125,125,126,125,125,125,0,1764984223.272512
127,125,125,125,126,125,125,125,0,1764984223.2725146
126,125,125,125,126,125,125,125,0,1764984223.3230803
126,125,125,125,124,125,124,125,0,1764984223.323084
126,125,125,125,124,125,125,125,0,1764984223.3230865
126,125,125,125,123,125,125,125,0,1764984223.323089
126,125,125,124,124,125,125,125,0,1764984223.3230913
126,125,125,125,124,125,125,125,0,1764984223.3230934
126,125,125,125,125,125,125,125,0,1764984223.3230956
126,125,125,125,125,125,125,125,0,1764984223.323098
126,125,125,125,126,125,125,125,0,1764984223.323105
126,125,125,125,124,125,125,125,0,1764984223.3231072
126,125,125,125,123,125,125,125,0,1764984223.3231096
127,125,125,125,123,125,125,125,0,1764984223.3231118
126,124,125,125,123,124,125,125,0,1764984223.3231137
126,124,125,125,123,124,124,125,0,1764984223.3231196
125,124,125,125,125,125,124,125,0,1764984223.3231215
126,124,125,125,126,125,125,125,0,1764984223.3231242
126,124,125,124,126,125,125,125,0,1764984223.3433204
127,125,125,125,125,125,125,125,0,1764984223.343327
127,125,125,125,124,125,125,125,0,1764984223.3433292
127,125,125,125,123,125,125,125,0,1764984223.3433318
126,125,125,125,122,125,125,125,0,1764984223.3433342
126,125,125,125,122,125,125,125,0,1764984223.3433363
126,125,125,125,123,125,124,125,0,1764984223.3433387
126,125,125,125,124,125,124,125,0,1764984223.343341
126,125,125,125,124,125,124,125,0,1764984223.3433433
126,125,125,125,124,125,124,125,0,1764984223.3433456
126,124,125,125,124,125,124,125,0,1764984223.343348
126,125,125,125,123,125,125,125,0,1764984223.3433502
126,125,125,125,124,125,125,125,0,1764984223.3433568
127,125,125,125,124,125,125,125,0,1764984223.3433592
127,125,125,125,125,125,125,125,0,1764984223.3433616
127,126,125,125,126,125,125,125,0,1764984223.343364
126,125,125,125,126,125,125,125,0,1764984223.3937864
125,124,124,125,126,125,124,124,0,1764984223.3937905
125,124,124,124,125,125,124,124,0,1764984223.3937929
125,124,124,124,124,124,124,125,0,1764984223.3937953
126,125,125,124,124,124,124,125,0,1764984223.3937976
126,125,125,124,123,124,124,125,0,1764984223.3938
127,125,125,124,123,125,125,126,0,1764984223.3938022
126,125,125,125,123,125,125,126,0,1764984223.3938048
126,125,125,125,124,125,125,126,0,1764984223.393807
126,125,125,125,124,125,125,126,0,1764984223.3938093
126,125,125,125,125,125,125,126,0,1764984223.3938115
126,125,126,125,125,125,125,126,0,1764984223.3938136
126,125,125,125,125,125,125,125,0,1764984223.3938158
126,125,125,125,125,125,125,125,0,1764984223.3938181
126,125,125,125,125,124,125,125,0,1764984223.39382
126,125,125,124,124,124,125,125,0,1764984223.3938231
126,124,124,125,125,124,125,125,0,1764984223.4342337
126,125,125,125,124,125,125,125,0,1764984223.4342377
126,124,125,125,124,125,125,125,0,1764984223.4342403
126,124,125,125,124,125,125,125,0,1764984223.4342427
126,124,125,125,124,125,125,125,0,1764984223.4342453
126,125,125,125,124,125,125,125,0,1764984223.4342477
126,125,125,124,124,125,124,125,0,1764984223.4342496
126,125,125,124,125,125,124,125,0,1764984223.434252
127,125,125,125,125,125,124,125,0,1764984223.4342544
126,125,125,125,126,125,124,125,0,1764984223.4342563
126,125,125,125,126,125,124,125,0,1764984223.4342587
126,125,125,125,125,125,125,125,0,1764984223.4342656
126,125,125,125,125,125,125,125,0,1764984223.434268
126,124,125,125,125,125,125,125,0,1764984223.4342701
126,125,125,125,125,125,125,125,0,1764984223.4342725
126,125,125,125,126,125,125,125,0,1764984223.4342752
126,125,125,125,126,125,125,125,0,1764984223.444375
126,125,125,125,125,125,125,125,0,1764984223.4443781
126,125,125,125,123,124,125,125,0,1764984223.4443805
126,125,125,125,123,125,125,125,0,1764984223.4443827
126,125,125,125,122,125,125,125,0,1764984223.4443889
126,125,125,124,121,125,124,125,0,1764984223.4443915
126,125,125,125,121,125,125,125,0,1764984223.4443936
126,125,125,125,122,125,125,125,0,1764984223.444396
126,125,125,125,123,125,125,125,0,1764984223.4443984
126,125,125,125,123,125,125,125,0,1764984223.4444044
127,125,125,125,124,125,125,125,0,1764984223.444407
127,125,125,125,125,125,125,125,0,1764984223.4444094
126,125,125,124,124,124,125,125,0,1764984223.4444118
126,125,125,124,124,124,125,125,0,1764984223.4444137
126,125,125,124,125,124,125,125,0,1764984223.4444158
126,125,125,124,125,125,125,125,0,1764984223.4444182
126,125,124,124,126,125,125,125,0,1764984223.4746292
126,125,125,125,126,125,125,125,0,1764984223.4746337
126,125,125,125,126,125,125,125,0,1764984223.474636
126,125,125,125,126,125,125,125,0,1764984223.4746387
127,125,125,125,125,125,125,125,0,1764984223.484818
127,125,125,125,125,125,125,125,0,1764984223.484822
127,125,125,125,125,125,125,125,0,1764984223.4848251
126,125,125,125,124,125,125,125,0,1764984223.4848335
