emg0,emg1,emg2,emg3,emg4,emg5,emg6,emg7,label,timestamp
125,125,124,124,124,125,124,124,0,1768593394.4539711
125,125,124,124,124,124,124,124,0,1768593394.4539793
125,124,124,124,124,124,124,124,0,1768593394.4539835
125,124,124,124,124,124,124,124,0,1768593394.4539876
125,122,123,123,123,123,124,124,0,1768593394.453995
125,123,124,122,123,123,123,124,0,1768593394.4539988
125,123,123,122,122,122,123,124,0,1768593394.4540026
125,123,124,121,122,123,123,124,0,1768593394.4540064
126,124,123,121,122,123,124,124,0,1768593394.45401
126,124,123,121,122,124,124,124,0,1768593394.4540143
126,124,123,121,122,125,124,124,0,1768593394.454018
125,124,123,121,122,125,124,124,0,1768593394.4540217
125,124,124,122,123,125,123,124,0,1768593394.4540253
125,125,124,122,123,124,123,124,0,1768593394.454029
125,124,124,122,123,124,123,123,0,1768593394.4540327
125,125,125,121,122,123,123,123,0,1768593394.4540386
125,124,125,121,122,123,123,124,0,1768593394.4742668
125,124,124,120,122,123,123,124,0,1768593394.4742746
125,123,124,120,122,124,125,124,0,1768593394.4742799
125,124,124,120,122,124,125,124,0,1768593394.474285
125,124,123,121,122,124,125,124,0,1768593394.4742894
125,123,123,122,123,124,125,124,0,1768593394.4742942
125,123,123,123,122,124,124,124,0,1768593394.474299
125,125,124,124,122,123,123,124,0,1768593394.4743128
125,125,125,126,123,123,123,124,0,1768593394.4743176
126,125,125,127,123,123,123,124,0,1768593394.4743223
125,126,125,127,124,123,123,124,0,1768593394.474327
126,125,125,129,124,123,123,124,0,1768593394.4743314
125,123,124,129,124,123,123,124,0,1768593394.474336
125,122,123,128,123,123,123,124,0,1768593394.4743407
125,122,124,127,123,124,124,124,0,1768593394.474345
126,122,124,127,124,124,124,125,0,1768593394.4743557
126,123,124,126,124,124,124,125,0,1768593394.4946706
126,124,125,126,124,124,125,125,0,1768593394.4946787
126,126,125,127,124,124,125,125,0,1768593394.494684
126,126,124,127,123,123,124,124,0,1768593394.4946885
125,125,124,127,123,124,123,124,0,1768593394.494693
125,125,124,129,123,124,125,124,0,1768593394.4946978
125,125,124,128,123,124,124,124,0,1768593394.4947026
125,125,124,129,124,124,124,124,0,1768593394.494707
125,124,124,129,124,125,125,124,0,1768593394.4947119
125,124,124,129,124,125,126,124,0,1768593394.4947166
126,124,125,129,124,125,124,125,0,1768593394.494721
126,124,125,128,123,125,125,125,0,1768593394.4947255
126,124,124,128,123,126,124,124,0,1768593394.49473
125,124,124,127,123,126,124,124,0,1768593394.4947343
125,124,124,126,122,125,123,124,0,1768593394.4947386
124,124,124,125,121,123,123,124,0,1768593394.4947467
125,123,124,125,121,123,123,124,0,1768593394.5655491
125,124,124,123,122,122,123,124,0,1768593394.5655546
125,124,124,123,122,122,123,124,0,1768593394.5655627
125,123,123,122,122,123,123,124,0,1768593394.5655653
125,122,123,122,122,124,123,124,0,1768593394.5655682
125,123,124,125,123,124,124,124,0,1768593394.565571
125,124,123,126,124,124,124,124,0,1768593394.5655737
125,124,123,129,125,124,124,124,0,1768593394.565576
125,124,124,131,125,124,124,124,0,1768593394.5655825
125,125,124,133,125,124,124,124,0,1768593394.5655851
125,123,123,132,125,124,123,124,0,1768593394.5655878
125,123,124,131,124,125,124,124,0,1768593394.56559
125,123,124,129,124,125,124,124,0,1768593394.5655923
125,123,124,126,124,125,125,124,0,1768593394.5655947
125,123,124,124,124,124,125,124,0,1768593394.5655968
125,124,125,123,125,125,124,124,0,1768593394.5655994
125,125,125,122,125,124,122,124,0,1768593394.5656016
125,125,124,123,126,125,124,124,0,1768593394.5656042
125,126,124,124,126,125,123,124,0,1768593394.5656064
125,126,124,125,126,125,123,124,0,1768593394.5656128
125,125,124,125,125,125,124,124,0,1768593394.5656195
125,125,124,125,124,124,125,124,0,1768593394.5656219
125,124,124,125,123,123,123,123,0,1768593394.565624
125,124,124,124,122,122,123,123,0,1768593394.5656297
125,124,124,123,122,122,123,123,0,1768593394.5656323
125,124,124,122,122,122,122,123,0,1768593394.5656345
125,123,124,121,122,122,122,123,0,1768593394.5656369
125,124,123,120,122,123,123,123,0,1768593394.5656393
125,124,123,119,122,124,124,124,0,1768593394.5656414
125,124,123,117,122,124,124,124,0,1768593394.565644
125,124,123,116,122,124,125,124,0,1768593394.5656464
125,124,123,117,121,124,124,124,0,1768593394.5656493
125,124,124,119,121,123,123,124,0,1768593394.60598
126,124,124,121,120,122,122,123,0,1768593394.6059833
126,124,124,124,119,123,122,124,0,1768593394.6059856
126,124,124,127,120,124,123,124,0,1768593394.605988
126,124,125,128,120,124,125,125,0,1768593394.6059902
126,124,125,128,121,124,126,125,0,1768593394.605992
126,124,125,128,123,126,127,126,0,1768593394.6059945
126,125,125,126,125,126,126,125,0,1768593394.6060007
126,126,125,124,125,125,125,125,0,1768593394.606003
126,126,125,123,126,124,124,124,0,1768593394.606005
126,126,125,122,126,124,123,124,0,1768593394.606007
125,126,125,121,124,123,124,124,0,1768593394.6060092
125,125,124,120,123,123,124,124,0,1768593394.6060116
125,125,124,120,122,123,124,124,0,1768593394.6060145
125,125,124,121,121,123,123,124,0,1768593394.6060164
125,124,124,121,122,124,124,124,0,1768593394.606019
125,124,125,122,124,124,124,124,0,1768593394.6261613
125,124,125,122,126,124,124,124,0,1768593394.6261666
125,124,125,122,127,124,124,124,0,1768593394.6261692
125,123,124,120,128,124,124,124,0,1768593394.6261718
125,123,124,119,128,124,124,124,0,1768593394.6261744
125,123,123,119,128,124,124,124,0,1768593394.626177
125,123,123,119,127,124,123,124,0,1768593394.6261792
125,122,123,120,126,124,123,124,0,1768593394.6261818
125,122,124,122,126,124,123,124,0,1768593394.6261847
125,122,124,123,125,124,123,124,0,1768593394.6261883
125,122,124,123,125,124,123,123,0,1768593394.6261919
125,122,124,123,123,123,123,123,0,1768593394.6261947
125,123,124,123,124,123,124,124,0,1768593394.6261976
125,123,124,124,124,123,124,124,0,1768593394.6262004
126,123,124,124,124,123,124,124,0,1768593394.6262026
126,124,124,125,125,123,124,124,0,1768593394.6262066
126,124,124,125,125,123,124,124,0,1768593394.6766825
126,124,124,124,125,123,123,124,0,1768593394.6766868
125,125,124,123,123,123,123,124,0,1768593394.6766894
125,125,124,123,122,123,123,124,0,1768593394.6766918
125,124,124,123,122,124,123,124,0,1768593394.676694
125,124,124,123,122,124,124,124,0,1768593394.6766963
125,124,124,123,123,124,124,124,0,1768593394.676704
125,122,123,124,124,125,123,124,0,1768593394.6767063
125,122,123,124,124,126,124,124,0,1768593394.6767087
125,123,124,125,124,126,124,124,0,1768593394.6767108
126,124,124,125,124,125,124,124,0,1768593394.6767132
125,125,124,126,124,125,124,124,0,1768593394.676717
126,126,124,126,123,124,124,124,0,1768593394.6767194
125,127,124,126,123,124,124,124,0,1768593394.6767216
125,127,124,125,122,124,123,124,0,1768593394.676724
125,126,124,125,122,124,123,124,0,1768593394.6767268
125,125,124,124,122,123,123,124,0,1768593394.6968515
125,124,124,124,122,123,123,124,0,1768593394.6968553
125,124,125,124,122,123,124,124,0,1768593394.696861
125,123,125,124,123,124,124,124,0,1768593394.6968637
126,123,125,125,123,124,124,124,0,1768593394.6968663
126,123,125,126,123,125,125,125,0,1768593394.696869
126,123,125,126,124,126,125,125,0,1768593394.6968715
125,123,124,125,123,125,124,125,0,1768593394.696874
125,123,123,124,123,125,124,124,0,1768593394.6968765
125,123,123,122,123,124,124,124,0,1768593394.6968791
125,124,123,120,123,124,123,124,0,1768593394.6968818
125,124,123,119,122,124,123,124,0,1768593394.6968842
125,124,123,119,123,124,123,124,0,1768593394.6968868
125,124,124,119,123,123,123,124,0,1768593394.6968896
125,125,124,120,122,124,124,124,0,1768593394.6968925
126,125,124,121,122,124,124,124,0,1768593394.6968956
126,124,124,121,121,124,124,124,0,1768593394.717068
126,124,125,122,121,125,124,124,0,1768593394.7170734
126,124,125,123,120,125,124,124,0,1768593394.7170768
125,123,124,122,120,125,124,124,0,1768593394.7170796
125,123,124,122,119,124,124,124,0,1768593394.7170823
125,123,124,123,120,124,123,124,0,1768593394.7170856
125,123,124,122,120,123,123,124,0,1768593394.7170885
125,124,123,121,121,123,123,124,0,1768593394.7170959
125,123,123,120,122,122,123,124,0,1768593394.717099
125,124,124,120,123,123,124,124,0,1768593394.7171018
126,124,124,119,124,124,124,124,0,1768593394.717105
126,124,124,120,125,124,124,125,0,1768593394.7171078
126,124,124,120,126,124,124,125,0,1768593394.7171106
126,125,124,121,127,125,124,125,0,1768593394.7171133
125,125,124,122,128,124,124,124,0,1768593394.717116
125,124,123,124,128,124,123,124,0,1768593394.7171197
125,125,123,126,127,124,123,124,0,1768593394.7574503
125,125,123,127,127,124,123,124,0,1768593394.7574556
125,125,123,128,126,124,123,124,0,1768593394.7574584
125,124,123,128,125,124,123,124,0,1768593394.7574608
125,124,124,128,124,124,124,124,0,1768593394.757463
125,124,124,129,124,124,124,124,0,1768593394.7574654
126,124,125,129,123,124,124,124,0,1768593394.7574716
125,123,125,129,124,124,124,124,0,1768593394.7574737
125,124,124,129,124,124,124,124,0,1768593394.757476
125,123,124,129,124,124,124,124,0,1768593394.7574823
125,123,124,128,124,124,124,124,0,1768593394.7574842
125,123,123,126,124,124,123,124,0,1768593394.7574866
125,123,123,125,123,124,123,124,0,1768593394.757489
125,123,124,125,123,124,123,124,0,1768593394.7574914
125,124,124,124,122,123,123,124,0,1768593394.7574937
125,124,124,124,122,123,123,124,0,1768593394.7574964
125,124,123,124,122,124,123,124,0,1768593394.7876883
125,123,124,125,122,124,123,124,0,1768593394.7876918
125,123,123,124,122,124,123,124,0,1768593394.787695
125,123,123,124,122,124,124,124,0,1768593394.7876976
125,122,123,124,122,124,124,124,0,1768593394.7877
126,123,124,123,122,124,124,124,0,1768593394.7877023
126,124,124,122,123,124,124,124,0,1768593394.787709
126,124,124,123,123,125,124,124,0,1768593394.7877114
126,124,125,124,123,125,124,124,0,1768593394.787714
126,124,125,124,123,125,124,124,0,1768593394.7877164
125,123,124,124,123,124,123,124,0,1768593394.7877188
125,124,125,124,123,124,124,124,0,1768593394.787721
125,124,125,124,124,124,124,124,0,1768593394.7877233
125,124,125,123,124,124,124,124,0,1768593394.7877257
125,125,124,123,124,124,124,124,0,1768593394.7877276
125,124,124,122,124,124,124,124,0,1768593394.7877307
125,124,124,122,124,124,124,124,0,1768593394.8280175
125,124,123,122,123,124,124,124,0,1768593394.8280213
125,124,124,122,123,124,124,124,0,1768593394.828024
125,124,124,122,123,124,124,124,0,1768593394.828026
125,125,125,122,123,124,124,124,0,1768593394.828029
125,125,125,122,123,124,124,124,0,1768593394.8280315
125,124,125,123,122,123,124,124,0,1768593394.8280342
125,124,125,123,123,123,124,124,0,1768593394.8280365
126,124,125,124,124,124,124,124,0,1768593394.8280392
126,123,124,124,124,124,124,124,0,1768593394.8280423
126,124,124,124,124,124,124,124,0,1768593394.828045
126,124,124,123,124,124,124,124,0,1768593394.8280473
125,123,124,123,124,124,124,124,0,1768593394.8280501
125,123,123,122,124,123,124,124,0,1768593394.8280528
125,123,123,122,123,123,124,124,0,1768593394.8280551
125,124,124,123,123,123,124,124,0,1768593394.828058
125,124,124,124,123,123,124,124,0,1768593394.848206
125,125,124,124,123,123,124,124,0,1768593394.8482206
125,125,124,124,123,124,124,124,0,1768593394.8482232
125,125,124,125,123,124,124,124,0,1768593394.8482258
125,124,123,125,123,124,124,124,0,1768593394.848228
125,124,124,124,123,124,124,124,0,1768593394.8482301
125,124,124,124,123,125,124,124,0,1768593394.8482347
125,123,124,124,123,125,124,124,0,1768593394.848237
125,124,124,124,123,124,124,124,0,1768593394.8482394
125,124,124,123,123,124,124,124,0,1768593394.8482416
125,124,124,123,123,124,124,124,0,1768593394.848244
125,124,123,123,123,124,124,124,0,1768593394.848246
125,124,123,123,123,123,124,124,0,1768593394.8482494
125,124,123,123,123,124,124,124,0,1768593394.8482516
126,124,124,124,123,124,124,124,0,1768593394.8482537
126,123,124,124,123,125,124,124,0,1768593394.848256
126,124,124,124,123,125,124,124,0,1768593394.8785553
126,124,124,124,123,125,124,124,0,1768593394.8785603
125,124,124,124,123,125,124,124,0,1768593394.878563
125,124,124,123,123,125,124,124,0,1768593394.8785653
125,124,124,124,123,125,124,124,0,1768593394.8785691
124,124,124,124,124,124,124,124,0,1768593394.878572
125,123,124,124,124,124,124,124,0,1768593394.8785744
125,124,124,125,124,124,124,124,0,1768593394.8785768
125,124,124,126,124,124,124,124,0,1768593394.878579
126,125,125,126,124,125,124,124,0,1768593394.8785815
126,125,125,126,124,125,124,124,0,1768593394.878584
126,124,125,125,123,125,124,124,0,1768593394.878586
125,124,125,124,124,124,124,124,0,1768593394.8785884
125,123,125,123,124,124,124,124,0,1768593394.8785908
125,123,124,122,123,123,124,124,0,1768593394.8785932
125,123,124,122,123,123,124,124,0,1768593394.8785968
125,123,124,122,123,123,124,124,0,1768593394.9188707
125,124,124,123,123,124,124,124,0,1768593394.9188817
125,124,124,123,122,124,124,124,0,1768593394.918884
126,125,125,123,123,125,124,124,0,1768593394.9188864
126,125,125,123,123,125,124,124,0,1768593394.918888
126,125,125,123,124,124,124,125,0,1768593394.91889
126,124,124,123,124,124,124,125,0,1768593394.9188921
126,125,124,122,124,123,124,125,0,1768593394.9188936
126,125,124,122,123,123,124,124,0,1768593394.9188957
125,125,124,122,123,122,124,124,0,1768593394.9188976
125,125,124,122,123,123,123,124,0,1768593394.9188995
125,124,124,123,123,123,123,124,0,1768593394.9189012
125,123,124,123,123,123,123,124,0,1768593394.918903
125,123,124,124,123,124,123,124,0,1768593394.9189048
125,123,124,124,122,124,123,124,0,1768593394.9189065
125,123,124,123,122,124,124,124,0,1768593394.918909
125,124,124,123,122,124,124,124,0,1768593394.9391317
125,124,124,124,122,124,124,124,0,1768593394.9391363
125,124,124,125,123,124,124,124,0,1768593394.9391391
125,124,124,124,123,123,124,124,0,1768593394.9391418
125,124,124,125,123,123,124,124,0,1768593394.9391441
125,123,124,124,123,123,124,124,0,1768593394.9391465
125,124,123,123,123,123,124,124,0,1768593394.9391491
125,124,123,123,123,124,124,124,0,1768593394.9391513
125,124,123,123,123,124,124,124,0,1768593394.9391537
125,123,123,123,124,124,124,124,0,1768593394.939156
125,124,124,124,124,125,124,124,0,1768593394.9391582
126,125,124,125,124,126,124,125,0,1768593394.9391606
126,124,124,124,124,125,124,124,0,1768593394.939163
126,124,124,125,124,125,124,124,0,1768593394.9391654
126,124,124,124,123,125,124,124,0,1768593394.9391677
125,123,123,123,123,125,124,124,0,1768593394.9391704
125,122,123,122,123,124,124,124,0,1768593395.0098696
125,122,123,122,122,123,124,124,0,1768593395.0098798
124,123,124,122,122,123,124,124,0,1768593395.0098822
125,123,124,122,122,123,123,124,0,1768593395.009884
125,124,123,123,123,123,123,124,0,1768593395.0098863
125,125,124,124,123,123,124,124,0,1768593395.0098882
126,126,124,124,123,124,124,124,0,1768593395.009894
126,126,124,125,124,125,124,124,0,1768593395.0098956
126,125,125,127,124,125,124,124,0,1768593395.0098975
126,125,126,128,124,125,124,125,0,1768593395.0098994
126,125,126,128,125,125,124,125,0,1768593395.009901
126,124,126,128,125,124,124,125,0,1768593395.009903
126,124,126,128,125,124,124,125,0,1768593395.0099046
126,125,125,126,124,124,124,124,0,1768593395.0099065
126,124,124,123,124,124,124,124,0,1768593395.0099082
125,124,124,122,123,124,124,124,0,1768593395.00991
125,124,124,122,123,124,124,124,0,1768593395.0099118
125,123,124,121,123,124,124,124,0,1768593395.0099137
125,122,123,122,123,124,124,124,0,1768593395.0099154
125,122,123,122,123,124,124,124,0,1768593395.0099173
125,123,123,123,123,125,124,124,0,1768593395.009919
125,123,123,123,123,124,124,123,0,1768593395.0099206
125,124,123,123,123,124,124,123,0,1768593395.0099223
125,124,124,124,122,124,124,123,0,1768593395.009924
125,124,124,124,122,124,124,123,0,1768593395.0099256
125,124,123,125,123,124,123,124,0,1768593395.0099275
125,124,123,125,123,123,123,124,0,1768593395.0099292
125,124,123,125,123,123,123,124,0,1768593395.0099308
125,125,124,126,124,123,123,124,0,1768593395.0099325
125,124,124,127,124,123,123,124,0,1768593395.0099347
125,124,124,127,124,123,123,124,0,1768593395.0099366
125,123,124,128,124,124,123,124,0,1768593395.009939
125,123,124,127,124,124,123,124,0,1768593395.0605524
125,122,124,126,124,123,123,124,0,1768593395.0605588
125,122,124,124,123,123,123,124,0,1768593395.0605624
125,123,124,125,123,124,124,124,0,1768593395.0605652
125,123,124,124,123,123,124,124,0,1768593395.0605683
125,123,124,125,123,124,124,124,0,1768593395.0605714
125,124,123,125,123,124,124,124,0,1768593395.0605745
125,124,124,125,123,124,124,124,0,1768593395.0605774
125,125,124,124,123,123,124,124,0,1768593395.0605803
125,126,124,123,122,124,124,124,0,1768593395.060583
125,126,124,122,123,124,124,124,0,1768593395.0605862
125,126,124,123,123,124,124,124,0,1768593395.060659
125,125,124,123,124,124,124,124,0,1768593395.060662
125,124,124,123,124,124,124,124,0,1768593395.0606642
125,123,124,124,124,124,124,124,0,1768593395.06067
125,124,124,124,124,124,124,124,0,1768593395.0606723
125,124,123,122,123,124,124,124,0,1768593395.080894
125,124,123,122,123,124,123,124,0,1768593395.0808988
125,125,124,123,123,124,124,124,0,1768593395.0809054
125,124,124,123,123,124,124,124,0,1768593395.0809083
125,123,124,124,123,124,124,124,0,1768593395.080911
125,123,124,124,124,124,124,124,0,1768593395.080913
125,123,124,124,124,125,124,124,0,1768593395.080916
125,123,124,124,123,125,124,123,0,1768593395.0809183
125,123,124,123,123,125,124,123,0,1768593395.0809205
125,123,124,122,123,124,124,123,0,1768593395.080923
125,123,124,123,123,124,124,123,0,1768593395.0809257
125,123,124,123,124,124,124,124,0,1768593395.080928
126,124,124,123,124,124,124,124,0,1768593395.0809302
126,124,124,124,123,124,124,124,0,1768593395.0809326
126,125,124,124,124,124,124,124,0,1768593395.080935
126,125,124,124,123,124,124,124,0,1768593395.0809374
125,124,124,123,123,124,124,124,0,1768593395.1011226
125,124,123,123,123,124,124,124,0,1768593395.101127
125,123,124,123,123,124,124,124,0,1768593395.1011295
125,123,124,123,123,123,124,124,0,1768593395.101132
125,123,124,124,123,124,124,124,0,1768593395.1011345
125,124,124,125,123,124,124,124,0,1768593395.101137
125,125,124,125,124,125,124,124,0,1768593395.1011422
125,125,124,126,124,125,124,124,0,1768593395.1011446
125,125,124,126,124,125,124,124,0,1768593395.1011472
125,125,124,126,124,125,124,124,0,1768593395.1011496
126,126,124,125,124,125,124,124,0,1768593395.1011517
126,125,124,124,124,124,124,124,0,1768593395.101154
126,125,124,124,124,124,124,124,0,1768593395.101156
126,125,124,125,124,124,124,124,0,1768593395.1011584
125,125,125,125,123,123,123,124,0,1768593395.1011605
125,124,125,124,123,123,123,124,0,1768593395.101163
125,123,125,125,123,123,123,124,0,1768593395.1417096
125,123,124,125,123,123,123,124,0,1768593395.141718
125,123,123,124,123,123,124,124,0,1768593395.1417203
125,122,123,124,123,124,124,124,0,1768593395.1417224
125,123,123,125,123,124,124,124,0,1768593395.141724
126,123,123,124,123,124,124,124,0,1768593395.1417263
126,123,124,124,123,125,124,124,0,1768593395.141728
126,124,124,123,123,125,124,124,0,1768593395.1417298
125,124,125,122,123,125,124,124,0,1768593395.1417315
125,124,125,122,123,124,124,124,0,1768593395.1417334
125,124,125,122,123,123,123,124,0,1768593395.141735
125,125,124,123,123,123,124,123,0,1768593395.1417367
125,125,124,123,123,124,124,123,0,1768593395.1417384
125,124,123,123,123,124,124,123,0,1768593395.1417403
125,125,123,123,123,124,124,123,0,1768593395.141742
125,125,123,124,124,125,124,124,0,1768593395.1417441
125,124,124,124,124,125,124,124,0,1768593395.161983
125,124,124,124,124,125,124,124,0,1768593395.1721008
125,125,124,124,124,125,124,124,0,1768593395.1721044
125,125,124,124,124,124,124,124,0,1768593395.1721072
125,124,124,122,123,123,123,124,0,1768593395.17211
125,124,124,123,123,123,123,124,0,1768593395.172116
125,124,124,123,123,122,123,124,0,1768593395.1721182
125,123,124,124,123,123,123,124,0,1768593395.1721208
125,123,123,125,123,123,123,124,0,1768593395.1721232
125,123,123,126,123,123,123,124,0,1768593395.1721253
125,124,124,126,123,124,124,124,0,1768593395.1721277
125,125,124,126,123,125,124,124,0,1768593395.17213
126,125,124,126,124,125,124,124,0,1768593395.1721323
126,126,125,125,124,125,124,125,0,1768593395.1721344
126,125,125,124,124,125,125,125,0,1768593395.172137
126,125,125,124,124,125,125,125,0,1768593395.17214
126,124,125,123,124,124,125,125,0,1768593395.212619
126,124,125,123,123,124,124,125,0,1768593395.2126245
126,123,125,123,123,124,124,124,0,1768593395.2126274
125,123,124,124,123,123,124,124,0,1768593395.2126293
125,124,124,124,124,123,124,124,0,1768593395.2126312
125,124,124,124,124,123,124,124,0,1768593395.2126336
125,124,124,124,124,124,124,124,0,1768593395.2126353
126,124,124,125,124,124,124,124,0,1768593395.2126377
126,124,124,125,123,125,124,124,0,1768593395.2126448
125,124,124,125,123,125,124,124,0,1768593395.2126474
125,124,125,125,123,125,124,124,0,1768593395.2126496
125,124,125,124,123,124,124,124,0,1768593395.2126517
125,124,124,124,123,123,124,124,0,1768593395.212654
125,124,125,124,123,123,124,124,0,1768593395.2126565
125,124,125,124,123,123,124,124,0,1768593395.2126627
125,124,124,123,123,123,124,124,0,1768593395.2126656
125,124,124,123,123,124,124,123,0,1768593395.2328596
125,124,124,123,123,124,124,123,0,1768593395.2328637
125,124,124,122,123,124,124,123,0,1768593395.2328663
125,123,123,122,123,124,124,124,0,1768593395.232869
125,123,123,123,124,124,124,124,0,1768593395.2328787
125,123,124,123,124,125,124,124,0,1768593395.232881
125,123,124,124,124,125,124,124,0,1768593395.23289
125,123,124,125,123,124,124,124,0,1768593395.2328925
125,124,124,124,123,124,124,124,0,1768593395.2328963
125,124,124,124,122,123,124,124,0,1768593395.2329018
125,124,124,124,122,123,124,124,0,1768593395.2329047
125,124,124,124,122,123,124,124,0,1768593395.2329073
125,125,125,124,123,123,124,124,0,1768593395.2329125
126,125,125,124,123,124,124,124,0,1768593395.2329152
125,125,125,123,124,124,124,124,0,1768593395.2329178
125,124,124,122,124,124,124,124,0,1768593395.2329235
125,124,124,122,124,124,124,124,0,1768593395.2834177
125,124,124,121,123,124,124,124,0,1768593395.2834358
125,124,124,121,123,124,124,124,0,1768593395.2834427
125,124,123,121,122,124,124,124,0,1768593395.283448
125,125,123,121,123,124,124,124,0,1768593395.2834535
125,125,123,123,123,124,124,124,0,1768593395.2834582
125,124,123,124,122,124,124,123,0,1768593395.283464
125,123,124,126,123,125,124,124,0,1768593395.28347
125,124,124,128,123,124,124,124,0,1768593395.283483
126,123,124,129,123,124,124,124,0,1768593395.2834885
126,123,125,128,123,125,124,125,0,1768593395.2834942
126,123,125,127,124,124,124,125,0,1768593395.2834997
125,123,124,125,124,124,124,124,0,1768593395.2835047
125,123,124,123,123,124,123,124,0,1768593395.2835095
126,124,124,123,123,124,123,124,0,1768593395.2835147
126,125,125,124,124,124,124,124,0,1768593395.283527
126,125,125,124,124,124,124,125,0,1768593395.3037703
126,125,125,125,124,124,125,125,0,1768593395.3037784
126,125,125,125,125,125,125,125,0,1768593395.3037834
126,126,125,124,124,125,125,125,0,1768593395.3037882
125,125,125,123,124,125,124,125,0,1768593395.303793
125,124,125,123,124,125,124,124,0,1768593395.3037972
125,124,124,122,123,124,124,124,0,1768593395.3038018
125,124,124,122,122,124,124,124,0,1768593395.3038065
125,124,124,122,122,123,123,124,0,1768593395.3038108
125,124,123,122,122,123,123,124,0,1768593395.3038151
125,125,123,121,122,123,124,124,0,1768593395.30382
125,124,123,122,122,123,124,124,0,1768593395.303824
125,124,123,123,122,123,124,124,0,1768593395.3038282
125,124,124,124,122,124,124,124,0,1768593395.3038325
125,124,124,124,123,124,124,124,0,1768593395.3038468
125,124,125,125,123,124,124,124,0,1768593395.3038526
126,124,125,125,124,124,124,124,0,1768593395.324021
125,124,125,125,124,124,124,124,0,1768593395.3240263
125,124,125,124,124,124,124,124,0,1768593395.3240297
125,124,124,123,124,124,124,124,0,1768593395.3240333
125,124,124,123,124,124,124,124,0,1768593395.3240366
125,124,123,123,124,125,123,124,0,1768593395.3240397
125,124,123,124,123,125,123,124,0,1768593395.3240426
125,123,123,124,123,124,123,124,0,1768593395.3240457
125,123,123,124,123,124,123,124,0,1768593395.3240483
125,123,123,125,123,124,124,124,0,1768593395.3240514
126,123,123,125,123,124,124,124,0,1768593395.3240542
126,123,124,125,123,124,124,124,0,1768593395.3240643
125,123,124,125,123,124,124,124,0,1768593395.3240678
126,125,124,124,124,124,124,124,0,1768593395.3240707
125,124,124,124,123,124,124,124,0,1768593395.3240738
125,125,124,123,123,124,124,124,0,1768593395.3240817
125,125,124,123,123,124,124,124,0,1768593395.3645275
125,125,125,123,123,123,124,124,0,1768593395.3645325
125,124,125,124,123,123,124,124,0,1768593395.364535
125,125,125,124,123,123,124,124,0,1768593395.3645377
125,124,125,124,123,124,124,124,0,1768593395.36454
125,124,125,123,124,124,124,124,0,1768593395.364549
125,123,124,124,125,124,124,124,0,1768593395.3645518
125,123,124,124,125,124,124,124,0,1768593395.3645537
126,123,124,124,125,124,124,124,0,1768593395.3645563
125,124,124,123,125,123,124,124,0,1768593395.3645587
125,124,123,124,124,123,123,124,0,1768593395.364561
125,124,124,124,123,123,123,124,0,1768593395.3645635
125,125,124,123,122,123,123,124,0,1768593395.3645675
125,124,124,124,123,124,123,124,0,1768593395.36457
125,124,124,124,122,124,124,124,0,1768593395.3747363
125,124,124,124,123,125,124,124,0,1768593395.3747408
125,124,124,124,123,125,124,124,0,1768593395.3951042
125,123,124,125,124,125,124,124,0,1768593395.3951087
125,124,125,125,124,125,124,125,0,1768593395.3951113
126,124,124,124,124,125,124,125,0,1768593395.395114
126,125,124,124,124,125,124,125,0,1768593395.3951166
126,125,124,123,124,125,124,125,0,1768593395.395119
126,125,124,123,123,125,124,124,0,1768593395.3951213
126,125,124,123,123,125,124,124,0,1768593395.395124
125,125,124,123,123,124,123,124,0,1768593395.3951263
125,125,124,123,123,124,123,124,0,1768593395.3951285
125,124,125,123,123,123,123,124,0,1768593395.3951309
125,125,125,123,124,124,123,124,0,1768593395.3951333
125,125,124,124,124,124,124,124,0,1768593395.3951354
125,124,124,124,124,124,124,124,0,1768593395.3951375
125,124,124,123,124,124,124,124,0,1768593395.3951402
125,124,124,123,124,124,124,124,0,1768593395.3951473
125,124,124,123,123,124,124,124,0,1768593395.4355502
125,124,124,123,123,123,124,124,0,1768593395.4355557
125,124,124,123,123,124,124,124,0,1768593395.4355593
125,123,124,124,123,124,123,124,0,1768593395.435562
125,123,124,125,123,124,123,124,0,1768593395.4355648
125,123,124,125,124,124,123,124,0,1768593395.435568
125,123,125,125,124,124,124,124,0,1768593395.435571
125,124,125,125,124,124,124,124,0,1768593395.4355738
125,124,125,124,123,125,124,124,0,1768593395.4355767
125,124,125,124,123,125,124,124,0,1768593395.4355793
125,123,124,124,123,125,124,124,0,1768593395.4355822
125,123,124,124,124,125,124,124,0,1768593395.4355845
125,123,123,123,124,124,124,124,0,1768593395.4355874
125,123,123,123,124,124,124,124,0,1768593395.43559
125,124,124,123,124,124,124,124,0,1768593395.435593
125,125,124,124,124,123,124,124,0,1768593395.4356017
125,124,124,124,123,124,124,124,0,1768593395.46581
125,124,124,125,123,124,124,124,0,1768593395.4658148
125,123,124,125,124,124,124,124,0,1768593395.4658175
126,123,124,125,124,124,124,124,0,1768593395.4658198
126,123,124,125,124,124,124,124,0,1768593395.4658225
125,123,123,125,124,124,124,124,0,1768593395.4658246
125,124,123,125,123,124,124,124,0,1768593395.465827
125,124,124,124,123,124,124,124,0,1768593395.4658294
125,124,124,124,122,124,124,124,0,1768593395.4658318
125,124,124,124,122,124,124,124,0,1768593395.465834
125,124,124,124,123,124,124,124,0,1768593395.4658363
125,124,124,123,123,124,123,124,0,1768593395.4658384
125,124,124,122,124,124,123,124,0,1768593395.4658406
125,125,124,122,124,124,123,124,0,1768593395.465843
126,125,124,122,123,123,124,124,0,1768593395.4658475
126,124,124,122,123,123,123,124,0,1768593395.46585
126,124,124,123,123,123,124,124,0,1768593395.4860134
126,124,124,124,123,123,124,124,0,1768593395.4860168
126,124,125,125,123,123,124,124,0,1768593395.4860191
126,124,124,126,123,124,124,124,0,1768593395.4860213
126,125,125,126,124,125,124,125,0,1768593395.4860237
126,124,125,126,124,125,125,125,0,1768593395.4860294
126,124,125,125,124,125,125,125,0,1768593395.4860315
126,123,125,124,125,125,125,125,0,1768593395.486034
126,124,125,123,124,125,125,125,0,1768593395.4860365
126,124,125,124,124,125,124,125,0,1768593395.4860387
126,124,124,124,124,125,124,124,0,1768593395.486041
126,125,124,126,123,124,124,124,0,1768593395.4860432
125,126,124,126,123,124,124,124,0,1768593395.4860456
125,125,124,126,123,124,124,124,0,1768593395.4860477
125,124,123,124,123,124,124,124,0,1768593395.48605
125,124,123,124,123,124,124,124,0,1768593395.4860523
125,123,123,123,123,124,124,124,0,1768593395.5263698
125,122,123,122,123,124,123,124,0,1768593395.5263758
125,122,123,123,123,123,123,124,0,1768593395.5263789
125,123,124,123,123,123,124,124,0,1768593395.5263817
125,123,124,123,123,124,124,124,0,1768593395.5263848
125,123,124,123,123,124,124,124,0,1768593395.5263877
125,123,124,124,123,124,124,124,0,1768593395.5263908
125,124,124,124,123,124,124,124,0,1768593395.5263937
125,123,124,124,123,124,123,124,0,1768593395.5263963
125,123,124,125,124,123,123,124,0,1768593395.526399
125,123,123,125,124,123,123,124,0,1768593395.5264018
125,124,123,125,124,124,124,124,0,1768593395.5264046
125,124,124,125,123,124,123,124,0,1768593395.5264075
125,125,124,125,123,124,123,124,0,1768593395.5264103
125,125,125,125,123,125,124,124,0,1768593395.526413
125,125,125,125,123,125,124,124,0,1768593395.526421
125,125,125,124,123,124,124,124,0,1768593395.5466027
125,125,125,124,123,124,124,124,0,1768593395.5466068
125,124,124,123,123,123,124,124,0,1768593395.5466094
125,124,124,123,123,122,123,124,0,1768593395.5466118
125,124,123,122,123,123,123,124,0,1768593395.546614
125,124,123,122,123,123,123,124,0,1768593395.5466163
125,123,123,122,123,123,123,124,0,1768593395.5466187
125,123,124,122,123,123,123,123,0,1768593395.5466275
125,123,124,122,123,124,124,124,0,1768593395.5466301
125,123,124,123,123,123,123,124,0,1768593395.5466325
125,123,124,123,124,123,123,124,0,1768593395.5466347
125,123,123,123,124,123,123,124,0,1768593395.546637
125,123,123,123,124,124,123,124,0,1768593395.5466394
125,123,123,124,123,124,123,124,0,1768593395.5466413
125,122,123,124,123,124,123,124,0,1768593395.54665
125,123,123,124,123,124,124,124,0,1768593395.5466523
125,123,124,124,123,124,124,124,0,1768593395.5971684
125,124,124,124,123,124,124,124,0,1768593395.5971792
125,125,124,124,123,124,124,124,0,1768593395.5971825
125,125,124,124,123,124,124,124,0,1768593395.5971851
125,125,124,124,123,124,124,124,0,1768593395.5971873
125,125,124,124,123,124,124,124,0,1768593395.5971897
125,125,124,124,124,124,124,124,0,1768593395.597192
126,125,124,124,124,124,124,124,0,1768593395.5971942
126,124,124,124,124,124,124,124,0,1768593395.5971966
126,124,124,124,124,124,124,124,0,1768593395.597199
126,124,124,124,124,124,124,124,0,1768593395.597201
125,124,124,124,123,124,124,124,0,1768593395.5972035
125,124,124,124,123,124,124,123,0,1768593395.5972059
125,124,125,124,123,124,124,123,0,1768593395.597208
125,124,125,125,123,124,124,123,0,1768593395.5972104
125,124,124,124,123,124,124,124,0,1768593395.5972133
125,124,124,124,124,124,124,124,0,1768593395.6174061
125,124,124,122,124,124,124,124,0,1768593395.6174226
125,124,124,121,123,123,124,124,0,1768593395.6174328
125,124,123,121,123,124,124,124,0,1768593395.617436
125,124,123,121,123,124,123,124,0,1768593395.6174388
125,124,124,122,123,124,123,123,0,1768593395.6174471
125,124,124,123,123,124,123,123,0,1768593395.6174502
125,124,124,124,123,124,123,123,0,1768593395.6174533
125,124,124,125,123,125,124,124,0,1768593395.6174567
125,124,125,124,123,125,124,124,0,1768593395.6174598
125,123,125,124,123,124,124,124,0,1768593395.6174629
125,123,125,125,123,124,124,124,0,1768593395.617466
125,123,124,125,123,124,124,124,0,1768593395.617469
125,123,124,125,123,123,124,124,0,1768593395.6174722
125,124,124,126,123,123,124,124,0,1768593395.6174753
125,124,124,126,123,123,124,124,0,1768593395.6174784
125,124,123,125,123,123,124,124,0,1768593395.6679366
125,123,123,124,123,124,124,124,0,1768593395.6679416
125,123,123,124,123,124,124,124,0,1768593395.667944
125,123,123,124,122,124,124,124,0,1768593395.667946
125,123,123,123,122,124,124,124,0,1768593395.667948
125,124,124,123,122,124,124,124,0,1768593395.6679504
125,124,124,123,123,124,124,124,0,1768593395.667952
125,124,124,123,123,124,124,124,0,1768593395.6679542
125,125,124,124,124,124,124,124,0,1768593395.6679559
125,124,124,124,124,123,124,124,0,1768593395.6679578
125,124,125,124,124,123,124,124,0,1768593395.6679595
126,124,124,123,123,124,124,124,0,1768593395.6679611
125,124,124,123,123,124,124,124,0,1768593395.6679628
125,123,124,123,123,124,124,124,0,1768593395.667965
125,123,124,123,122,124,123,124,0,1768593395.6679666
125,123,124,123,123,124,123,124,0,1768593395.667969
125,123,124,124,123,123,123,124,0,1768593395.6881397
125,124,124,123,123,123,124,124,0,1768593395.688143
125,125,124,123,123,123,124,124,0,1768593395.6881459
125,125,123,124,124,124,124,124,0,1768593395.6881483
125,125,123,124,124,124,124,124,0,1768593395.6881552
125,125,123,124,123,124,124,124,0,1768593395.6881578
125,124,123,124,124,124,124,124,0,1768593395.68816
125,124,123,124,123,125,124,124,0,1768593395.688162
126,124,124,125,123,125,125,125,0,1768593395.6881642
126,125,125,125,123,125,125,125,0,1768593395.6881666
126,125,125,124,124,125,125,125,0,1768593395.688169
126,125,125,124,123,125,124,125,0,1768593395.6881711
125,125,125,124,123,125,124,124,0,1768593395.6881735
125,125,125,124,123,125,124,124,0,1768593395.6881757
125,124,125,124,124,124,124,124,0,1768593395.6881776
126,124,124,125,124,124,124,124,0,1768593395.68818
126,124,124,125,124,124,124,124,0,1768593395.7084317
126,123,124,125,124,124,124,124,0,1768593395.708436
125,122,124,124,124,124,124,124,0,1768593395.7084389
125,123,124,123,124,125,123,124,0,1768593395.708441
125,123,124,124,124,125,124,124,0,1768593395.7084434
125,124,124,123,124,124,124,124,0,1768593395.7084458
125,125,124,123,124,124,124,124,0,1768593395.708448
125,124,124,124,124,123,124,124,0,1768593395.70845
125,124,124,124,123,123,124,124,0,1768593395.7084525
126,124,123,123,123,123,124,124,0,1768593395.7084546
126,123,123,123,123,123,124,124,0,1768593395.708457
126,124,123,123,123,124,124,124,0,1768593395.708459
126,124,124,123,123,124,124,124,0,1768593395.708461
125,124,124,123,122,124,124,124,0,1768593395.7084632
125,124,124,123,122,124,123,124,0,1768593395.708465
125,124,124,123,122,125,123,124,0,1768593395.708468
125,123,124,123,123,125,123,124,0,1768593395.7488694
125,123,124,123,123,124,124,124,0,1768593395.748876
125,123,124,123,124,124,123,124,0,1768593395.748879
125,124,124,124,124,123,123,124,0,1768593395.748881
125,125,124,124,124,123,124,124,0,1768593395.7488835
125,126,124,124,124,124,124,124,0,1768593395.748891
125,126,124,123,123,124,124,124,0,1768593395.7488935
125,126,124,124,123,124,124,124,0,1768593395.748896
125,125,124,124,123,124,124,124,0,1768593395.7488983
125,124,123,123,123,124,124,124,0,1768593395.7489007
125,124,123,124,123,124,123,124,0,1768593395.7489028
125,123,123,124,124,124,123,124,0,1768593395.7489052
125,123,123,123,124,125,123,124,0,1768593395.7489076
125,123,124,123,124,125,124,124,0,1768593395.7489097
125,122,124,123,123,124,123,124,0,1768593395.7489119
125,122,124,123,123,124,123,124,0,1768593395.7489145
125,122,124,124,123,124,123,124,0,1768593395.779107
125,123,124,124,123,123,123,124,0,1768593395.7791107
125,123,124,124,123,123,123,124,0,1768593395.7791128
125,123,125,124,122,123,124,124,0,1768593395.7791147
125,123,124,123,122,123,124,124,0,1768593395.7791169
125,124,124,123,122,123,124,124,0,1768593395.7791185
125,123,124,122,122,123,124,124,0,1768593395.7791207
125,123,123,122,123,123,124,124,0,1768593395.7791224
125,124,124,122,124,124,124,124,0,1768593395.779128
126,125,124,122,124,124,124,125,0,1768593395.7791297
126,125,124,123,124,124,125,125,0,1768593395.779132
126,126,125,124,125,125,125,125,0,1768593395.7791338
126,126,125,124,125,125,125,125,0,1768593395.7791355
126,125,124,124,124,125,124,124,0,1768593395.7791374
125,124,124,125,124,124,124,124,0,1768593395.779139
125,123,124,125,124,124,124,124,0,1768593395.7791414
125,123,123,125,123,123,124,124,0,1768593395.8195035
125,124,123,126,123,123,124,124,0,1768593395.819509
125,124,124,125,123,123,124,124,0,1768593395.8195126
125,124,124,124,123,124,124,124,0,1768593395.8195152
125,124,124,124,123,124,124,124,0,1768593395.819518
125,124,125,123,123,125,124,124,0,1768593395.8195214
125,123,125,123,123,125,124,124,0,1768593395.819525
125,123,125,123,123,125,124,124,0,1768593395.8195283
125,123,125,123,123,124,124,124,0,1768593395.819532
125,123,125,123,123,124,124,124,0,1768593395.8195353
125,123,124,123,123,124,124,124,0,1768593395.8195384
125,123,124,123,123,123,124,124,0,1768593395.8195415
125,123,123,124,123,124,124,124,0,1768593395.8195446
125,124,124,124,123,124,124,124,0,1768593395.8195474
125,124,124,123,123,124,124,124,0,1768593395.8195624
125,125,124,123,123,124,124,124,0,1768593395.819567
125,125,124,123,123,124,124,124,0,1768593395.8397286
125,124,124,124,123,124,124,124,0,1768593395.8397336
125,124,124,124,123,124,124,124,0,1768593395.8397357
125,123,124,124,123,124,123,124,0,1768593395.8397381
125,123,124,125,123,124,123,124,0,1768593395.8397408
125,123,124,124,123,124,123,124,0,1768593395.8397467
125,124,124,124,123,124,123,124,0,1768593395.839749
125,124,124,124,123,124,123,124,0,1768593395.8397515
125,124,124,123,123,124,124,124,0,1768593395.8397536
125,124,124,123,123,123,124,124,0,1768593395.839756
125,124,123,122,123,123,124,124,0,1768593395.8397582
125,124,123,122,123,123,124,124,0,1768593395.8397603
125,124,124,123,123,124,124,124,0,1768593395.8397624
126,125,124,125,123,124,124,125,0,1768593395.8397648
126,125,124,125,123,124,124,125,0,1768593395.839767
126,125,124,126,124,124,124,125,0,1768593395.839774
126,124,125,127,124,124,124,125,0,1768593395.8901947
125,123,124,126,124,124,124,124,0,1768593395.8901982
125,122,124,124,124,124,124,124,0,1768593395.8902004
125,123,124,124,124,123,123,124,0,1768593395.890202
125,124,124,124,124,124,123,124,0,1768593395.8902085
125,125,124,123,123,124,124,124,0,1768593395.8902109
125,126,124,123,123,124,124,124,0,1768593395.8902128
125,126,124,123,123,124,124,124,0,1768593395.8902147
125,125,124,123,123,124,124,124,0,1768593395.8902166
125,124,124,124,123,124,124,124,0,1768593395.8902185
125,123,124,124,123,124,124,124,0,1768593395.8902214
126,123,124,124,124,124,124,124,0,1768593395.8902228
125,123,123,125,123,124,124,124,0,1768593395.890225
125,123,124,124,123,125,124,124,0,1768593395.8902266
125,124,124,124,123,124,124,124,0,1768593395.8902285
125,124,124,123,123,124,124,124,0,1768593395.8902304
125,123,125,123,123,124,124,124,0,1768593395.9104326
125,123,125,122,123,123,124,124,0,1768593395.9104364
125,123,125,123,123,123,124,124,0,1768593395.910439
125,124,124,124,124,124,124,124,0,1768593395.9104414
125,125,124,124,124,124,124,124,0,1768593395.910444
125,125,125,125,124,124,124,124,0,1768593395.9104464
125,125,125,124,124,124,124,124,0,1768593395.9104488
125,125,125,123,124,124,124,124,0,1768593395.9104512
125,124,125,123,123,124,124,124,0,1768593395.9104536
125,124,124,123,123,124,124,124,0,1768593395.9104557
125,123,124,123,123,124,123,124,0,1768593395.910458
125,123,124,123,123,124,123,124,0,1768593395.9104605
125,123,123,124,122,123,123,124,0,1768593395.9104624
125,123,123,124,122,123,123,124,0,1768593395.9104648
125,122,124,124,123,124,123,124,0,1768593395.910467
126,123,124,125,124,124,124,125,0,1768593395.9104698
126,123,124,125,124,125,124,125,0,1768593395.930683
126,123,125,125,124,125,124,124,0,1768593395.9306886
126,124,125,125,124,125,124,124,0,1768593395.9306922
125,124,124,125,124,125,124,124,0,1768593395.930695
125,124,124,124,123,124,123,124,0,1768593395.930698
125,124,124,125,123,123,123,124,0,1768593395.9307008
125,125,123,125,123,123,123,124,0,1768593395.9307036
125,125,123,125,123,123,123,124,0,1768593395.9307065
125,125,123,125,123,122,124,124,0,1768593395.9307096
125,125,124,125,123,123,124,124,0,1768593395.9307125
125,125,124,124,123,123,124,124,0,1768593395.9307153
125,124,124,124,123,124,124,124,0,1768593395.9307184
125,124,124,122,124,124,124,124,0,1768593395.9307213
125,124,124,122,124,124,124,124,0,1768593395.9307244
125,124,124,122,123,124,124,124,0,1768593395.9307272
125,123,124,122,123,124,124,124,0,1768593395.930736
125,123,124,122,123,124,124,124,0,1768593395.9810994
125,123,124,123,123,124,124,124,0,1768593395.9811032
125,123,124,124,122,124,124,124,0,1768593395.9811053
125,123,124,124,122,124,124,124,0,1768593395.9811075
125,124,124,124,123,124,124,124,0,1768593395.9811091
125,125,124,125,123,124,124,124,0,1768593395.9811113
125,124,124,124,123,124,124,124,0,1768593395.9811137
125,124,124,123,123,124,124,124,0,1768593395.9811153
126,124,124,124,124,124,124,124,0,1768593395.9811172
125,123,124,124,123,124,124,124,0,1768593395.981119
125,123,124,123,123,123,124,124,0,1768593395.9811208
125,124,124,124,123,124,124,124,0,1768593395.9811225
125,124,124,124,124,124,124,124,0,1768593395.9811244
125,124,124,124,124,124,124,124,0,1768593395.9811308
125,125,124,125,124,125,124,124,0,1768593395.9811327
126,125,124,125,124,125,124,124,0,1768593395.9811351
126,125,124,125,124,124,124,124,0,1768593396.001295
126,125,124,124,124,124,124,124,0,1768593396.0012977
126,125,124,123,123,123,124,124,0,1768593396.0012999
125,124,124,123,123,123,124,124,0,1768593396.0013022
125,124,124,123,123,123,123,124,0,1768593396.001306
125,124,124,124,123,124,123,124,0,1768593396.0013084
125,124,124,124,123,124,124,124,0,1768593396.0013108
125,124,123,125,123,124,124,124,0,1768593396.0013127
125,125,123,125,123,125,124,124,0,1768593396.001315
125,125,123,124,122,125,124,124,0,1768593396.001317
125,125,124,123,123,124,124,124,0,1768593396.0013194
125,124,124,123,124,125,124,124,0,1768593396.0013216
125,124,124,122,124,124,124,124,0,1768593396.0013235
125,123,124,122,124,124,124,124,0,1768593396.0013258
125,123,124,123,124,124,124,124,0,1768593396.0013342
125,124,124,123,123,124,124,124,0,1768593396.0013368
125,123,123,124,123,124,123,124,0,1768593396.061881
125,123,123,125,123,124,123,124,0,1768593396.0618877
125,123,123,125,123,123,124,124,0,1768593396.0618916
125,122,123,126,124,123,123,124,0,1768593396.0618954
125,122,123,126,123,123,123,124,0,1768593396.0618985
125,122,124,125,123,123,123,124,0,1768593396.0619018
125,123,124,125,123,124,124,124,0,1768593396.0619054
126,124,125,124,124,125,124,124,0,1768593396.061909
126,125,125,123,123,125,124,124,0,1768593396.0619123
126,126,125,123,123,125,124,124,0,1768593396.0619159
125,125,124,124,124,125,124,124,0,1768593396.0619195
125,125,124,124,123,125,124,124,0,1768593396.061923
125,125,124,124,123,124,124,124,0,1768593396.0619261
125,124,124,123,123,124,123,123,0,1768593396.0619297
125,124,124,123,123,123,123,123,0,1768593396.0619333
125,123,123,122,123,122,123,123,0,1768593396.0619383
125,123,123,122,123,123,123,123,0,1768593396.0720322
125,123,123,122,123,123,123,123,0,1768593396.0720356
125,123,123,123,123,123,124,124,0,1768593396.0720382
125,123,123,123,124,124,124,124,0,1768593396.0720406
125,124,123,123,123,124,124,124,0,1768593396.0720427
125,124,123,124,123,124,124,124,0,1768593396.072045
125,124,124,125,123,124,124,124,0,1768593396.0720477
125,124,124,124,123,124,124,124,0,1768593396.07205
125,125,124,123,123,123,124,124,0,1768593396.0720525
125,125,124,123,123,123,123,124,0,1768593396.0720549
125,124,124,123,123,124,123,124,0,1768593396.072057
125,124,124,122,123,124,124,124,0,1768593396.0720594
125,124,124,122,123,124,124,124,0,1768593396.0720665
125,124,124,123,123,124,124,124,0,1768593396.0720687
125,125,124,124,123,125,124,124,0,1768593396.072076
125,126,124,125,124,125,125,125,0,1768593396.0720787
126,126,124,125,124,124,125,125,0,1768593396.092229
126,126,125,126,124,125,125,125,0,1768593396.0922372
126,125,125,125,124,124,124,125,0,1768593396.0922399
126,124,125,123,124,124,124,125,0,1768593396.092242
125,124,125,123,124,124,124,124,0,1768593396.0922441
125,124,125,124,123,124,124,124,0,1768593396.0922463
125,124,124,125,123,124,124,124,0,1768593396.0922487
125,124,124,125,122,124,123,124,0,1768593396.0922508
125,124,124,126,123,124,124,124,0,1768593396.092253
125,124,124,127,123,124,124,124,0,1768593396.0922549
125,124,124,125,123,123,124,124,0,1768593396.0922573
126,124,124,124,124,123,124,124,0,1768593396.0922594
126,123,124,123,124,124,124,124,0,1768593396.0922616
125,123,124,123,123,124,124,124,0,1768593396.0922637
125,123,123,122,123,124,124,124,0,1768593396.092266
125,123,123,123,123,124,124,124,0,1768593396.0922682
125,123,123,124,122,125,124,124,0,1768593396.132538
125,124,123,124,122,125,124,124,0,1768593396.1325414
125,124,124,124,122,125,124,124,0,1768593396.1325438
125,124,124,125,123,125,124,124,0,1768593396.1325462
125,125,124,124,124,125,124,124,0,1768593396.1325526
125,124,124,124,124,125,124,124,0,1768593396.132555
125,124,124,123,124,124,124,124,0,1768593396.1325572
126,124,125,123,124,124,124,124,0,1768593396.1325593
125,124,124,122,124,123,124,124,0,1768593396.1325617
125,124,124,121,123,123,123,124,0,1768593396.132564
125,125,123,121,123,123,123,124,0,1768593396.1325662
125,125,124,121,123,123,123,124,0,1768593396.1325686
125,124,123,121,123,124,123,124,0,1768593396.1325705
125,124,124,122,123,124,123,124,0,1768593396.1325748
125,124,124,124,123,124,124,124,0,1768593396.1325767
125,124,124,126,123,123,124,124,0,1768593396.1325793
125,124,124,126,123,123,124,124,0,1768593396.1527467
125,124,124,126,123,123,124,124,0,1768593396.15275
125,124,124,125,123,123,124,124,0,1768593396.152752
125,124,123,124,123,123,123,124,0,1768593396.1527536
125,124,124,123,123,123,123,124,0,1768593396.1527555
125,124,124,123,123,124,124,124,0,1768593396.1527672
125,124,123,123,123,124,124,124,0,1768593396.1527696
125,124,124,123,124,124,124,124,0,1768593396.1527712
125,124,124,122,123,124,124,124,0,1768593396.1527736
125,124,124,122,123,124,124,124,0,1768593396.1527755
125,124,125,123,124,124,124,124,0,1768593396.1527774
126,124,125,124,124,125,124,124,0,1768593396.1528006
126,124,124,124,123,125,124,124,0,1768593396.1528032
126,124,125,124,123,124,124,124,0,1768593396.1528049
125,124,124,125,123,124,124,124,0,1768593396.152807
125,125,124,125,123,124,124,124,0,1768593396.1528683
125,124,124,125,123,124,123,124,0,1768593396.203256
125,124,124,124,123,124,124,124,0,1768593396.2032592
125,125,124,125,123,124,124,124,0,1768593396.2032611
126,124,124,124,124,124,124,124,0,1768593396.203263
126,124,124,124,123,124,124,124,0,1768593396.2032702
126,125,124,124,124,124,124,124,0,1768593396.2032719
126,125,124,125,124,124,124,124,0,1768593396.2032738
126,124,124,124,124,124,124,124,0,1768593396.2032754
125,123,124,124,124,124,124,124,0,1768593396.203277
125,123,124,123,124,124,124,124,0,1768593396.2032788
125,122,124,123,124,124,124,124,0,1768593396.2032807
125,122,123,123,123,123,124,124,0,1768593396.203282
125,122,124,124,123,123,124,124,0,1768593396.203284
125,123,124,125,123,123,124,124,0,1768593396.2032857
125,124,124,125,123,123,124,124,0,1768593396.2032907
125,124,124,125,123,123,124,124,0,1768593396.2032924
125,124,124,124,122,123,124,124,0,1768593396.2234104
125,124,124,124,122,123,124,124,0,1768593396.2234132
125,124,124,124,122,124,123,124,0,1768593396.2234154
125,124,124,123,122,124,123,124,0,1768593396.2234178
125,124,124,123,122,124,123,124,0,1768593396.22342
125,124,124,124,123,124,123,124,0,1768593396.2234223
125,124,123,124,123,124,123,124,0,1768593396.2234244
125,124,123,124,124,124,124,124,0,1768593396.2234266
125,124,123,124,125,124,124,124,0,1768593396.223429
125,124,123,124,125,124,123,124,0,1768593396.2234309
125,124,123,123,125,123,123,124,0,1768593396.2234335
125,124,124,124,124,124,123,124,0,1768593396.2234359
125,124,124,124,125,124,124,124,0,1768593396.2234378
126,123,124,124,124,124,124,124,0,1768593396.22344
126,123,124,124,123,124,124,124,0,1768593396.223442
126,123,124,124,123,124,124,124,0,1768593396.2234445
126,123,124,124,123,124,124,124,0,1768593396.2738147
125,123,123,124,123,124,124,124,0,1768593396.273819
125,123,123,125,123,124,124,124,0,1768593396.2738214
125,124,124,125,123,124,124,124,0,1768593396.273824
125,125,124,125,123,124,124,124,0,1768593396.2738311
125,125,124,124,123,124,124,124,0,1768593396.2738335
125,126,124,124,123,124,124,124,0,1768593396.2738357
125,127,125,124,123,124,124,124,0,1768593396.273838
125,126,124,124,124,124,124,124,0,1768593396.2738407
126,126,124,123,124,124,124,124,0,1768593396.273843
126,125,124,123,124,124,124,124,0,1768593396.2738452
125,124,124,123,123,124,124,124,0,1768593396.2738476
125,124,124,122,123,124,123,124,0,1768593396.27385
125,124,124,122,123,124,124,124,0,1768593396.273852
125,123,124,122,123,123,124,124,0,1768593396.2738545
125,123,124,123,122,123,124,124,0,1768593396.273861
125,123,124,124,122,123,124,124,0,1768593396.2940257
125,123,123,124,122,123,124,124,0,1768593396.2940283
125,122,123,125,122,123,124,124,0,1768593396.2940307
125,123,123,125,123,124,124,124,0,1768593396.2940328
126,124,124,125,124,125,124,124,0,1768593396.2940352
126,124,124,125,125,125,124,125,0,1768593396.2940373
126,125,124,125,125,125,124,125,0,1768593396.294042
126,125,125,126,125,125,124,125,0,1768593396.2940445
125,124,125,125,124,124,124,125,0,1768593396.2940466
125,124,125,124,124,124,124,124,0,1768593396.2940488
125,123,125,122,123,124,124,124,0,1768593396.2940512
125,123,125,122,123,124,123,124,0,1768593396.2940533
125,123,124,121,122,123,123,124,0,1768593396.2940557
125,123,124,122,123,123,124,124,0,1768593396.2940578
125,123,124,123,124,123,124,124,0,1768593396.29406
125,123,124,124,124,123,124,124,0,1768593396.2940624
125,123,124,124,124,124,124,124,0,1768593396.3142486
125,124,124,124,124,124,124,124,0,1768593396.3142648
125,124,123,123,124,124,124,124,0,1768593396.3142674
125,124,124,123,123,124,124,124,0,1768593396.3142695
125,125,124,123,123,124,124,124,0,1768593396.3142717
125,125,124,123,123,123,124,124,0,1768593396.314274
125,125,124,123,122,123,124,124,0,1768593396.314276
125,125,124,123,122,124,124,124,0,1768593396.3142781
125,126,124,124,122,124,124,124,0,1768593396.3142805
126,126,124,124,122,124,124,124,0,1768593396.3142824
126,126,125,125,122,125,124,124,0,1768593396.3142848
126,125,125,125,123,125,124,124,0,1768593396.3142903
126,124,124,124,123,125,124,124,0,1768593396.314294
125,123,124,123,123,124,124,124,0,1768593396.3142962
125,123,123,123,124,124,124,124,0,1768593396.3142984
125,123,123,123,124,124,124,124,0,1768593396.3143008
125,122,123,124,124,124,124,124,0,1768593396.3546412
125,122,124,124,124,124,124,124,0,1768593396.3546457
125,122,124,125,124,124,124,124,0,1768593396.3546493
125,122,124,125,124,125,124,124,0,1768593396.354653
125,123,124,126,124,125,124,124,0,1768593396.3546562
126,124,124,125,125,125,124,125,0,1768593396.3546593
126,124,124,125,125,125,124,125,0,1768593396.3546622
126,126,124,125,125,124,124,125,0,1768593396.354665
126,126,124,125,124,124,124,124,0,1768593396.3546677
125,125,124,125,123,124,124,124,0,1768593396.3546708
125,125,124,124,123,124,124,124,0,1768593396.354674
125,125,124,124,122,123,123,124,0,1768593396.3546772
125,124,124,124,122,123,123,124,0,1768593396.3546805
125,123,124,125,123,123,123,124,0,1768593396.3546836
125,123,124,124,123,123,123,124,0,1768593396.3546865
125,123,124,124,123,123,123,124,0,1768593396.3546898
125,123,124,124,123,124,124,124,0,1768593396.384928
125,123,124,124,123,124,123,124,0,1768593396.384932
125,123,124,123,123,124,123,124,0,1768593396.3849344
125,123,124,123,123,124,123,124,0,1768593396.384941
125,123,124,123,123,124,123,124,0,1768593396.3849432
125,124,124,123,122,124,124,124,0,1768593396.3849459
125,124,124,123,121,124,124,124,0,1768593396.3849483
126,125,124,124,121,124,124,124,0,1768593396.3849509
126,125,124,124,122,124,124,124,0,1768593396.384953
126,125,124,123,122,124,124,124,0,1768593396.3849561
126,125,125,123,123,124,124,125,0,1768593396.3849585
126,125,125,124,124,124,124,125,0,1768593396.3849607
126,124,124,123,124,123,124,124,0,1768593396.384963
126,124,124,124,124,123,124,124,0,1768593396.3849652
126,124,125,125,124,123,124,124,0,1768593396.384967
125,124,124,125,124,123,124,124,0,1768593396.3849697
125,124,123,124,123,123,124,124,0,1768593396.4253905
125,124,123,124,124,124,124,124,0,1768593396.425397
125,123,123,124,124,124,124,124,0,1768593396.4254014
125,123,123,124,124,124,123,124,0,1768593396.4254053
125,123,123,124,124,124,123,124,0,1768593396.4254093
125,123,124,124,125,124,124,124,0,1768593396.4254131
125,123,124,124,125,124,124,124,0,1768593396.425417
125,123,124,123,124,124,124,124,0,1768593396.4254208
126,124,125,123,124,124,124,124,0,1768593396.4254246
126,124,125,122,124,124,124,124,0,1768593396.4254284
126,124,125,122,123,124,124,124,0,1768593396.425432
125,124,124,122,122,123,123,124,0,1768593396.4254355
126,124,124,122,123,123,123,124,0,1768593396.4254396
125,124,124,123,123,124,124,124,0,1768593396.4254434
125,125,124,123,123,124,124,124,0,1768593396.4254472
125,124,124,123,123,124,124,124,0,1768593396.4254563
125,124,124,123,124,125,124,124,0,1768593396.4456599
125,124,124,123,124,125,124,124,0,1768593396.4456637
125,124,124,124,123,125,124,124,0,1768593396.4456666
125,124,124,124,123,124,124,124,0,1768593396.445669
125,124,124,125,123,124,124,124,0,1768593396.4456713
125,124,124,125,122,124,124,124,0,1768593396.4456737
125,124,123,125,122,123,124,124,0,1768593396.445701
125,124,123,125,122,123,123,124,0,1768593396.4457033
125,123,124,125,122,123,124,124,0,1768593396.4457054
125,124,124,124,121,124,124,124,0,1768593396.4457078
125,124,124,123,121,124,124,124,0,1768593396.4457102
125,124,124,123,122,124,124,124,0,1768593396.4457123
125,124,124,122,122,124,124,124,0,1768593396.4457147
126,124,124,122,122,124,124,124,0,1768593396.4457166
126,124,124,122,123,123,124,125,0,1768593396.445719
125,124,124,123,123,123,124,125,0,1768593396.4457223
125,124,124,124,124,123,124,125,0,1768593396.4962265
125,124,123,125,124,123,124,124,0,1768593396.496231
125,124,123,123,124,124,124,124,0,1768593396.496234
125,124,123,123,124,124,124,124,0,1768593396.4962366
125,124,123,122,123,124,124,124,0,1768593396.496239
125,124,124,121,123,124,124,124,0,1768593396.496241
125,124,124,119,122,124,124,124,0,1768593396.4962435
125,125,124,121,122,125,124,124,0,1768593396.4962456
125,125,124,122,123,125,124,124,0,1768593396.4962478
126,126,125,123,125,125,124,125,0,1768593396.4962502
126,125,125,124,125,125,124,125,0,1768593396.496252
126,125,124,124,125,125,124,125,0,1768593396.4962544
126,124,124,123,124,124,124,124,0,1768593396.4962614
126,123,124,122,123,123,124,124,0,1768593396.4962637
125,123,123,121,121,123,123,124,0,1768593396.4962656
125,122,123,122,120,123,123,124,0,1768593396.4962683
125,123,124,122,121,122,123,124,0,1768593396.5165308
125,123,124,123,122,123,123,124,0,1768593396.5165346
125,123,124,124,123,123,123,124,0,1768593396.5165372
125,122,124,124,123,123,123,124,0,1768593396.5165431
125,123,124,124,124,124,124,124,0,1768593396.5165455
125,123,124,123,124,125,124,124,0,1768593396.516548
125,124,124,123,124,124,124,124,0,1768593396.5165498
125,124,124,121,123,124,124,124,0,1768593396.5165522
125,124,124,120,122,123,124,124,0,1768593396.5165546
125,124,125,121,122,123,123,124,0,1768593396.5165565
125,124,124,121,121,123,123,124,0,1768593396.516559
125,124,124,122,122,123,123,124,0,1768593396.5165608
125,124,124,123,122,124,123,124,0,1768593396.516563
125,125,124,124,124,125,124,124,0,1768593396.5165653
126,125,124,125,124,125,124,124,0,1768593396.5165672
126,125,124,125,125,125,124,124,0,1768593396.5165699
126,124,124,126,125,125,124,124,0,1768593396.536779
126,124,124,125,124,125,124,124,0,1768593396.5367818
126,124,123,126,124,124,124,124,0,1768593396.5367844
125,124,124,126,123,124,124,124,0,1768593396.5367863
125,124,123,127,123,123,124,124,0,1768593396.5367887
125,124,124,126,123,124,124,124,0,1768593396.5367913
125,124,124,126,124,123,123,124,0,1768593396.5367937
125,124,124,125,124,124,123,124,0,1768593396.5367959
125,124,124,125,124,123,123,124,0,1768593396.536798
125,123,124,124,124,123,124,124,0,1768593396.5368001
125,123,124,124,124,123,124,124,0,1768593396.5368025
125,122,124,124,124,124,124,124,0,1768593396.5368047
125,122,124,124,124,124,124,124,0,1768593396.5368068
125,122,124,124,124,124,124,124,0,1768593396.5368087
125,124,124,123,124,124,124,124,0,1768593396.5368106
125,124,124,123,124,124,124,124,0,1768593396.5368166
125,125,123,123,123,124,123,124,0,1768593396.587234
125,125,124,122,123,123,123,124,0,1768593396.5872386
125,125,124,123,124,123,123,124,0,1768593396.5872414
125,125,124,122,124,123,123,124,0,1768593396.5872443
125,125,124,123,124,124,124,124,0,1768593396.587247
125,124,125,123,124,124,124,124,0,1768593396.5872495
125,124,125,124,124,125,124,124,0,1768593396.587252
125,123,125,124,123,124,124,124,0,1768593396.5872545
125,123,125,124,123,125,124,124,0,1768593396.587257
125,123,125,124,123,125,124,124,0,1768593396.5872593
126,123,124,123,123,125,124,124,0,1768593396.587262
126,124,124,123,124,125,125,124,0,1768593396.587268
126,124,124,123,125,125,125,124,0,1768593396.5872707
126,124,124,124,125,124,124,124,0,1768593396.5872731
126,124,124,125,125,124,124,124,0,1768593396.5872757
126,125,124,126,125,124,124,124,0,1768593396.5872788
125,124,124,126,124,124,124,124,0,1768593396.6074564
125,124,124,127,124,124,124,124,0,1768593396.6074743
125,124,124,126,123,124,124,124,0,1768593396.6074767
125,124,125,125,123,124,124,124,0,1768593396.6074827
125,124,124,124,123,124,124,124,0,1768593396.6074848
125,124,124,123,123,124,124,124,0,1768593396.60749
125,124,123,122,124,124,124,124,0,1768593396.6074924
125,124,123,123,124,124,124,124,0,1768593396.6074946
125,124,123,123,125,124,124,124,0,1768593396.607497
125,123,123,124,125,124,124,124,0,1768593396.6074994
125,123,123,125,125,124,124,124,0,1768593396.6075013
126,123,124,126,125,124,124,124,0,1768593396.607507
126,123,124,127,124,124,124,125,0,1768593396.607509
126,123,124,127,123,124,124,124,0,1768593396.6075115
126,123,124,127,123,124,124,124,0,1768593396.6075137
126,123,124,126,122,124,124,124,0,1768593396.607516
125,124,124,125,122,123,124,124,0,1768593396.6477752
125,124,124,125,122,123,123,124,0,1768593396.6477783
125,125,124,125,122,124,124,124,0,1768593396.6477807
125,125,124,126,123,124,124,124,0,1768593396.6477897
125,125,124,127,124,124,124,124,0,1768593396.647792
125,125,124,127,124,124,124,124,0,1768593396.6477978
125,124,124,127,125,125,124,124,0,1768593396.6478
126,124,124,126,125,125,124,124,0,1768593396.6478024
126,124,125,125,125,124,124,124,0,1768593396.6478047
126,124,125,125,125,124,124,124,0,1768593396.647807
125,124,125,125,125,124,124,124,0,1768593396.647809
125,124,124,125,124,124,124,124,0,1768593396.6478114
125,124,124,125,124,123,124,124,0,1768593396.6478133
125,123,124,124,124,124,124,124,0,1768593396.6478157
125,123,124,123,124,124,123,124,0,1768593396.6478176
125,123,124,123,124,125,123,124,0,1768593396.64782
125,124,124,123,124,125,123,124,0,1768593396.6780114
125,124,124,123,124,125,123,124,0,1768593396.6780188
125,124,124,124,124,125,123,124,0,1768593396.6780233
125,124,124,125,124,124,123,124,0,1768593396.6780276
125,125,124,125,123,123,124,124,0,1768593396.6780322
125,124,124,125,123,123,124,124,0,1768593396.6780362
125,124,125,124,123,124,124,124,0,1768593396.6780403
125,123,125,124,123,124,124,124,0,1768593396.678044
125,123,125,123,123,124,124,124,0,1768593396.678048
125,122,125,123,123,124,123,124,0,1768593396.678052
125,123,124,123,123,124,123,124,0,1768593396.6780558
125,123,124,125,123,124,124,124,0,1768593396.6780598
126,124,125,125,123,125,124,124,0,1768593396.6780636
126,125,124,125,123,125,124,125,0,1768593396.6780674
126,125,124,125,123,125,124,124,0,1768593396.6780713
126,125,124,125,123,125,124,124,0,1768593396.6780765
126,125,124,124,123,124,124,124,0,1768593396.7184165
125,125,124,125,123,124,124,124,0,1768593396.7184198
125,124,124,125,123,124,123,124,0,1768593396.7184265
125,124,124,127,123,124,124,124,0,1768593396.7184286
125,124,123,128,123,124,124,124,0,1768593396.7184308
125,123,123,128,123,124,124,124,0,1768593396.7184331
125,123,123,127,124,124,124,124,0,1768593396.718435
125,124,124,127,123,124,124,124,0,1768593396.7184372
125,125,124,125,123,125,124,124,0,1768593396.718439
125,124,124,123,124,125,124,124,0,1768593396.7184415
125,125,124,122,123,124,124,124,0,1768593396.7184436
125,125,124,121,123,124,124,124,0,1768593396.7184455
125,124,124,120,123,124,124,124,0,1768593396.7184477
125,123,124,119,123,123,123,123,0,1768593396.7184496
125,123,124,119,122,123,124,123,0,1768593396.7184517
125,123,124,120,123,123,124,123,0,1768593396.7184541
125,123,124,121,123,123,124,123,0,1768593396.7386389
125,124,123,121,123,124,124,123,0,1768593396.73865
125,125,124,122,123,124,124,124,0,1768593396.7386527
125,124,124,121,123,124,124,124,0,1768593396.738655
125,124,124,121,122,124,124,124,0,1768593396.7386572
125,125,124,121,122,124,124,124,0,1768593396.7386596
125,124,124,122,122,124,124,124,0,1768593396.7386615
125,124,124,122,122,124,124,124,0,1768593396.7386642
125,124,124,123,122,124,124,124,0,1768593396.7386665
125,124,124,124,123,124,124,124,0,1768593396.7386684
125,123,123,124,123,124,124,124,0,1768593396.7386708
125,124,123,125,123,124,124,124,0,1768593396.7386732
125,124,123,124,123,124,124,124,0,1768593396.7386754
125,124,123,124,123,124,124,124,0,1768593396.7386775
125,124,124,124,124,124,124,124,0,1768593396.7386796
125,124,124,124,124,124,124,124,0,1768593396.738682
125,124,124,124,124,124,124,124,0,1768593396.7689357
125,124,124,124,124,124,124,124,0,1768593396.76894
126,124,124,124,124,124,124,124,0,1768593396.768954
125,124,124,123,123,124,124,124,0,1768593396.768957
125,125,124,123,123,124,124,124,0,1768593396.768965
125,125,124,123,122,124,124,124,0,1768593396.7689679
125,125,124,124,122,124,124,124,0,1768593396.7689705
125,125,124,124,122,123,123,124,0,1768593396.768973
125,125,123,125,123,123,123,124,0,1768593396.7689753
125,124,124,125,123,124,124,124,0,1768593396.7689772
126,124,125,125,124,124,124,124,0,1768593396.7689795
126,124,125,125,124,124,124,124,0,1768593396.7689815
126,124,125,125,124,124,124,124,0,1768593396.7689836
126,124,125,125,124,125,124,124,0,1768593396.7689853
125,124,124,125,124,125,124,124,0,1768593396.7689877
125,124,124,124,124,125,124,125,0,1768593396.7689903
125,124,124,124,124,124,124,125,0,1768593396.8093026
125,123,124,124,124,124,124,125,0,1768593396.8093076
125,123,124,123,123,124,124,125,0,1768593396.80931
125,122,124,123,123,123,124,124,0,1768593396.8093126
125,123,124,123,123,123,124,124,0,1768593396.8093147
126,124,124,124,124,124,124,124,0,1768593396.8093255
126,124,124,124,124,125,124,125,0,1768593396.8093278
126,125,124,124,125,125,124,125,0,1768593396.8093305
126,125,124,124,124,125,124,125,0,1768593396.8093328
125,125,124,124,124,125,124,124,0,1768593396.809335
125,124,124,124,124,124,124,124,0,1768593396.8093374
125,124,123,123,123,124,124,124,0,1768593396.8093398
125,124,124,123,123,124,124,124,0,1768593396.809342
125,124,124,123,123,124,124,124,0,1768593396.8093443
125,123,124,123,123,124,124,124,0,1768593396.8093462
125,124,124,124,123,124,124,124,0,1768593396.8093486
125,124,123,124,123,124,124,124,0,1768593396.8295135
125,124,123,124,123,124,124,124,0,1768593396.8295174
125,124,123,123,123,124,124,124,0,1768593396.8295205
125,124,124,124,123,124,124,124,0,1768593396.8295243
125,124,124,124,123,123,124,124,0,1768593396.8295264
125,124,123,125,123,123,124,124,0,1768593396.829529
125,124,123,125,122,123,124,124,0,1768593396.8295314
125,123,123,124,122,124,124,124,0,1768593396.8295336
125,123,123,124,122,124,124,124,0,1768593396.829536
125,123,123,124,123,124,123,124,0,1768593396.8295383
125,123,124,123,123,124,123,124,0,1768593396.8295405
125,124,124,123,123,123,124,124,0,1768593396.829546
126,124,125,124,124,124,124,124,0,1768593396.8295486
126,124,125,124,124,123,124,124,0,1768593396.8295507
126,124,125,124,124,124,124,124,0,1768593396.8295531
126,124,125,124,124,124,124,124,0,1768593396.8295557
126,124,125,124,124,124,124,124,0,1768593396.8799844
125,123,124,124,123,124,123,124,0,1768593396.8799894
125,123,124,124,123,124,124,124,0,1768593396.8799922
125,123,124,123,123,123,124,124,0,1768593396.8799946
125,123,124,123,123,124,123,124,0,1768593396.8799973
124,123,124,123,123,123,123,124,0,1768593396.8799996
125,124,124,123,123,123,124,124,0,1768593396.880002
125,125,125,123,124,124,124,124,0,1768593396.8800044
126,125,125,124,124,124,124,124,0,1768593396.8800066
126,125,125,124,124,124,124,124,0,1768593396.880009
126,125,124,124,124,124,124,124,0,1768593396.8800113
125,124,124,124,123,124,124,124,0,1768593396.8800132
125,123,123,123,123,124,123,124,0,1768593396.8800156
125,123,123,123,123,124,124,124,0,1768593396.880018
125,122,123,123,123,123,124,124,0,1768593396.8800201
125,122,123,123,123,124,124,124,0,1768593396.8800273
125,123,124,124,124,124,124,124,0,1768593396.900167
126,124,124,125,124,124,125,125,0,1768593396.9001708
126,124,124,126,124,123,124,125,0,1768593396.900173
126,125,124,127,124,124,124,125,0,1768593396.9001753
126,125,124,126,124,124,124,124,0,1768593396.900178
125,124,124,126,124,124,124,124,0,1768593396.9001803
125,124,124,125,124,124,124,124,0,1768593396.9001825
125,124,124,124,124,124,124,124,0,1768593396.9001846
125,124,125,124,123,124,124,124,0,1768593396.9001877
125,125,124,124,123,124,124,124,0,1768593396.9001896
125,125,124,124,123,123,124,124,0,1768593396.900192
125,125,124,124,123,123,124,124,0,1768593396.9001944
125,125,123,124,123,124,124,124,0,1768593396.9001966
125,125,123,124,124,125,124,124,0,1768593396.9002001
125,125,124,124,124,125,124,124,0,1768593396.9002025
125,125,124,124,124,125,124,124,0,1768593396.9002051
125,124,124,123,124,125,124,124,0,1768593396.920414
125,124,125,123,124,124,124,124,0,1768593396.920418
125,123,124,122,123,124,124,124,0,1768593396.920421
125,123,124,122,123,124,124,124,0,1768593396.9204233
125,123,124,122,123,124,124,124,0,1768593396.9204254
125,123,124,122,123,124,124,124,0,1768593396.9204278
125,124,124,122,123,124,124,124,0,1768593396.9204302
125,124,123,122,123,124,124,124,0,1768593396.920436
125,124,123,123,123,124,124,124,0,1768593396.9204383
125,124,124,124,124,124,124,124,0,1768593396.9204407
125,125,125,125,124,124,124,124,0,1768593396.9204426
125,124,125,125,124,124,124,124,0,1768593396.920445
126,124,125,126,124,124,124,124,0,1768593396.9204469
125,124,125,126,124,124,124,124,0,1768593396.9204493
125,124,124,125,124,124,124,124,0,1768593396.9204519
125,123,123,125,123,124,124,124,0,1768593396.920455
125,123,123,124,123,124,123,124,0,1768593396.9709418
125,123,123,123,123,124,123,124,0,1768593396.9709466
125,123,123,122,123,123,123,124,0,1768593396.9709492
125,123,123,122,123,124,124,124,0,1768593396.9709518
125,123,124,122,123,124,124,124,0,1768593396.9709542
126,124,125,123,124,124,124,124,0,1768593396.9709566
126,124,125,123,124,124,124,124,0,1768593396.970959
126,125,125,124,124,124,124,124,0,1768593396.970961
125,125,125,125,123,123,124,124,0,1768593396.9709637
125,125,124,126,123,123,123,124,0,1768593396.970966
125,125,124,125,123,123,123,124,0,1768593396.9709682
125,124,124,125,123,123,124,124,0,1768593396.9709706
125,124,124,125,124,123,124,124,0,1768593396.970973
125,124,124,125,124,123,124,124,0,1768593396.9709752
125,124,124,125,124,124,124,124,0,1768593396.9709773
125,124,124,125,123,124,124,124,0,1768593396.970985
125,124,124,125,123,124,124,124,0,1768593396.9911847
126,125,124,125,123,124,124,124,0,1768593396.9911935
126,125,124,125,123,124,124,124,0,1768593396.9911973
126,125,124,124,123,124,124,124,0,1768593396.9912016
126,125,124,124,124,125,124,124,0,1768593396.9912055
126,125,124,124,124,125,125,125,0,1768593396.9912093
126,124,124,124,123,125,124,124,0,1768593396.991213
125,124,123,123,123,124,124,124,0,1768593396.991217
125,124,123,122,122,124,124,124,0,1768593396.991221
125,123,123,121,122,124,124,124,0,1768593396.9912248
125,124,123,121,123,124,124,124,0,1768593396.9912286
125,125,124,122,123,125,124,124,0,1768593396.9912322
125,124,125,123,124,125,124,125,0,1768593396.991242
126,125,125,124,124,124,124,125,0,1768593396.9912455
126,125,125,125,124,124,124,125,0,1768593396.991249
125,124,125,125,124,123,124,124,0,1768593396.9912527
125,124,124,125,123,123,124,124,0,1768593397.0316215
125,124,123,125,123,123,124,124,0,1768593397.0316274
125,124,123,125,123,123,124,124,0,1768593397.0316315
125,123,123,124,123,124,124,124,0,1768593397.0316353
125,123,123,124,123,124,124,124,0,1768593397.0316389
126,123,124,124,124,124,124,124,0,1768593397.0316424
126,124,125,123,124,124,124,125,0,1768593397.0316463
126,124,125,123,124,124,124,125,0,1768593397.0316496
126,124,125,123,124,124,124,125,0,1768593397.0316532
125,124,124,124,124,124,124,125,0,1768593397.0316567
125,124,124,124,123,124,124,124,0,1768593397.0316603
125,124,122,124,123,124,123,124,0,1768593397.0316637
125,123,123,124,123,124,123,124,0,1768593397.031667
125,124,123,123,124,124,123,124,0,1768593397.0316703
125,124,124,122,123,124,123,124,0,1768593397.0316734
125,124,124,122,123,124,124,124,0,1768593397.031677
125,125,125,123,123,124,124,124,0,1768593397.0618844
125,125,125,123,123,124,124,124,0,1768593397.0618904
125,124,125,124,123,124,124,124,0,1768593397.0618942
125,124,125,124,123,124,124,124,0,1768593397.061898
125,123,124,124,123,124,124,124,0,1768593397.0619018
125,123,124,124,123,124,123,124,0,1768593397.0619051
125,123,124,123,123,123,123,124,0,1768593397.0619087
125,123,123,122,123,124,123,124,0,1768593397.0619123
125,124,123,121,122,123,123,124,0,1768593397.0619156
125,124,123,121,122,123,123,124,0,1768593397.061919
125,125,123,122,123,123,123,124,0,1768593397.0619228
125,125,124,123,123,123,123,124,0,1768593397.0619264
125,126,124,126,123,124,124,124,0,1768593397.06193
125,126,124,127,124,124,124,124,0,1768593397.0619338
125,125,125,127,124,124,124,124,0,1768593397.061937
125,125,125,127,124,124,124,124,0,1768593397.0619414
125,125,124,126,124,124,124,124,0,1768593397.102244
125,124,124,126,124,123,124,124,0,1768593397.102248
125,124,124,125,124,124,124,124,0,1768593397.1022503
125,124,124,125,123,124,124,124,0,1768593397.1022525
125,124,124,124,124,125,124,124,0,1768593397.1022549
125,124,125,124,124,125,125,124,0,1768593397.1022573
125,124,125,124,124,125,125,124,0,1768593397.1022594
126,124,125,124,124,125,125,125,0,1768593397.1022656
126,124,124,124,125,125,125,125,0,1768593397.102268
126,124,124,124,124,125,124,125,0,1768593397.1022744
126,124,124,123,124,125,124,124,0,1768593397.1022763
126,124,124,122,124,125,124,124,0,1768593397.1022787
125,124,124,122,124,124,124,124,0,1768593397.1022809
125,125,124,122,123,124,124,124,0,1768593397.102283
125,125,125,122,123,123,124,123,0,1768593397.102286
125,125,124,123,123,123,124,123,0,1768593397.1022887
125,125,124,123,123,123,124,124,0,1768593397.1224928
125,124,124,123,122,123,124,124,0,1768593397.1224995
125,123,124,123,122,124,124,124,0,1768593397.1225035
125,122,123,123,122,123,124,124,0,1768593397.1225073
125,122,123,123,122,123,124,124,0,1768593397.1225104
125,122,123,124,122,123,124,124,0,1768593397.1225142
125,122,123,124,123,123,123,124,0,1768593397.1225233
126,123,123,124,123,123,123,124,0,1768593397.1225264
125,123,124,125,123,123,123,124,0,1768593397.1225295
125,124,123,124,123,124,123,124,0,1768593397.1225324
125,124,123,124,123,124,124,124,0,1768593397.1225355
125,125,123,124,123,124,124,124,0,1768593397.1225383
125,124,123,124,123,124,124,124,0,1768593397.1225414
125,124,123,123,123,124,124,124,0,1768593397.1225443
125,124,124,123,124,124,124,124,0,1768593397.1225471
125,124,124,123,123,124,124,124,0,1768593397.1225567
125,123,124,124,123,124,124,124,0,1768593397.1427336
125,124,124,124,124,125,124,124,0,1768593397.1427383
125,124,124,123,123,125,124,124,0,1768593397.1427486
125,123,124,122,123,124,124,124,0,1768593397.1427512
125,123,124,121,123,124,124,124,0,1768593397.1528347
125,123,124,121,123,124,124,124,0,1768593397.1528387
125,123,124,121,123,124,124,124,0,1768593397.1528416
125,122,123,122,123,123,124,124,0,1768593397.1528435
125,122,124,124,123,123,124,124,0,1768593397.1528459
126,123,124,125,123,124,124,124,0,1768593397.1528482
125,123,124,126,123,124,124,124,0,1768593397.1528504
125,124,124,126,124,124,124,124,0,1768593397.1528525
125,125,124,126,124,124,124,124,0,1768593397.1528547
125,125,124,125,124,124,123,124,0,1768593397.1528664
125,125,123,125,124,123,123,124,0,1768593397.15287
125,125,123,125,123,124,123,124,0,1768593397.1528754
125,125,123,124,123,123,123,124,0,1768593397.1932232
125,125,123,124,123,123,123,123,0,1768593397.1932278
125,125,124,123,123,124,124,123,0,1768593397.1932304
125,125,124,123,123,124,124,124,0,1768593397.1932325
125,124,124,124,124,124,124,124,0,1768593397.193235
125,124,125,125,124,125,124,124,0,1768593397.1932373
126,124,125,126,124,125,124,124,0,1768593397.1932395
126,124,125,126,124,125,124,124,0,1768593397.193242
126,124,124,125,123,125,124,125,0,1768593397.193244
126,125,124,124,123,125,124,124,0,1768593397.1932461
126,124,123,123,123,124,124,124,0,1768593397.1932485
126,124,123,121,123,124,124,124,0,1768593397.193251
125,123,123,121,122,123,124,124,0,1768593397.1932528
125,123,124,122,122,123,124,124,0,1768593397.1932552
125,122,124,123,122,124,124,124,0,1768593397.1932576
125,123,125,124,123,124,123,124,0,1768593397.193265
125,123,125,124,123,124,123,124,0,1768593397.2134683
125,123,125,123,124,124,123,124,0,1768593397.2134774
125,124,124,123,124,124,123,124,0,1768593397.2134798
125,125,124,123,125,124,124,124,0,1768593397.213482
125,125,124,123,124,124,124,124,0,1768593397.2134843
125,125,123,124,124,124,124,124,0,1768593397.2134867
125,124,123,125,124,123,124,124,0,1768593397.213489
125,124,123,125,123,123,124,124,0,1768593397.2134912
125,124,123,124,123,123,123,124,0,1768593397.2134936
125,124,123,124,123,123,124,124,0,1768593397.2134957
125,124,124,124,123,124,124,124,0,1768593397.213498
125,125,124,123,123,124,124,124,0,1768593397.2135003
126,125,124,124,123,124,124,124,0,1768593397.2135022
126,125,124,123,123,124,124,124,0,1768593397.2135046
126,124,124,124,123,124,124,124,0,1768593397.2135067
125,124,124,123,123,124,124,124,0,1768593397.2135093
125,124,124,123,123,124,124,124,0,1768593397.263959
125,123,124,123,123,125,124,124,0,1768593397.2639637
125,123,124,123,123,125,124,124,0,1768593397.2639658
125,124,124,123,123,125,124,124,0,1768593397.2639685
125,123,124,124,123,124,124,124,0,1768593397.263971
126,123,124,125,123,124,124,124,0,1768593397.2639732
126,124,124,125,123,124,124,124,0,1768593397.2639754
126,125,124,125,123,124,124,124,0,1768593397.2639778
126,125,123,125,123,124,124,124,0,1768593397.2639797
125,126,123,124,123,124,124,124,0,1768593397.2639856
125,126,123,122,123,124,124,124,0,1768593397.263988
125,125,124,121,123,124,123,124,0,1768593397.2639902
125,124,123,121,123,124,123,123,0,1768593397.2639925
125,124,124,121,123,124,123,123,0,1768593397.2639947
125,123,124,122,123,124,123,123,0,1768593397.263997
125,123,123,124,124,123,123,124,0,1768593397.2640038
125,122,123,125,124,124,123,124,0,1768593397.2841952
125,122,123,125,124,123,123,124,0,1768593397.2841997
125,122,123,126,124,124,123,124,0,1768593397.2842023
125,122,124,126,124,124,124,124,0,1768593397.2842047
125,123,124,125,123,124,124,124,0,1768593397.284207
125,123,124,124,123,123,124,124,0,1768593397.2842095
125,124,124,124,123,124,124,124,0,1768593397.2842116
125,124,125,124,123,124,124,124,0,1768593397.284214
125,125,125,124,123,124,124,124,0,1768593397.2842164
125,125,125,124,124,125,124,125,0,1768593397.284223
126,125,125,124,124,125,124,125,0,1768593397.2842255
126,125,125,124,123,125,124,125,0,1768593397.2842278
126,125,125,124,123,124,124,124,0,1768593397.2842305
126,124,124,124,123,125,124,124,0,1768593397.2842324
126,124,124,124,123,125,124,124,0,1768593397.284235
126,124,124,123,123,125,124,124,0,1768593397.2842379
126,124,124,123,123,125,124,124,0,1768593397.3246026
125,125,124,123,124,125,124,124,0,1768593397.3246083
125,125,124,123,124,125,124,124,0,1768593397.3246114
125,124,124,122,124,125,124,124,0,1768593397.3246143
125,124,124,123,123,124,124,124,0,1768593397.3246233
125,124,124,124,123,124,124,124,0,1768593397.3246264
125,123,124,124,122,124,124,124,0,1768593397.3246293
125,124,124,124,123,124,124,124,0,1768593397.3246324
125,125,123,124,123,124,124,124,0,1768593397.324635
126,125,124,124,124,124,124,124,0,1768593397.324638
126,125,124,123,124,124,124,124,0,1768593397.3246408
126,124,124,123,124,124,124,124,0,1768593397.3246436
125,123,124,123,124,124,124,124,0,1768593397.3246465
125,122,124,123,124,123,124,124,0,1768593397.3246493
125,122,125,124,124,124,124,124,0,1768593397.324652
125,123,124,124,124,124,124,124,0,1768593397.3246553
125,124,124,125,123,124,124,124,0,1768593397.3448067
125,124,124,125,123,124,124,124,0,1768593397.3448112
126,125,124,125,123,124,124,124,0,1768593397.3448138
126,124,124,125,123,124,124,124,0,1768593397.3448162
125,124,124,124,123,124,124,124,0,1768593397.3448184
125,124,124,123,123,124,124,124,0,1768593397.3448207
125,123,124,123,123,124,124,124,0,1768593397.3448231
125,123,124,122,123,124,124,124,0,1768593397.34483
125,123,124,122,123,123,124,124,0,1768593397.3448322
125,123,124,122,124,123,124,124,0,1768593397.3448403
125,124,123,123,124,123,124,124,0,1768593397.3448422
125,125,123,124,123,123,124,124,0,1768593397.3448446
125,125,123,123,124,124,124,124,0,1768593397.3448465
125,125,123,124,124,124,124,124,0,1768593397.3448486
125,125,124,125,124,124,124,124,0,1768593397.344851
125,125,124,125,124,124,124,124,0,1768593397.3448532
125,125,124,124,124,125,124,124,0,1768593397.3751733
125,125,124,126,123,124,124,124,0,1768593397.3751774
125,124,125,126,123,124,124,124,0,1768593397.37518
125,123,124,125,123,124,123,124,0,1768593397.3751824
125,123,124,125,122,124,123,124,0,1768593397.3751843
125,123,124,125,122,124,123,124,0,1768593397.3751862
125,123,124,125,123,124,123,124,0,1768593397.3751879
125,123,124,124,124,124,124,124,0,1768593397.3751898
125,123,124,123,123,123,124,124,0,1768593397.3751915
125,123,124,123,123,123,124,124,0,1768593397.3751934
126,124,125,124,123,123,124,124,0,1768593397.375195
126,124,124,124,124,124,124,124,0,1768593397.375197
126,125,124,124,123,124,124,124,0,1768593397.3751986
126,125,124,124,124,125,124,124,0,1768593397.3752005
126,125,124,124,124,125,124,124,0,1768593397.3752024
126,124,124,124,125,125,124,124,0,1768593397.3752048
125,125,124,123,124,124,124,124,0,1768593397.4155807
125,125,124,123,124,124,124,124,0,1768593397.4155846
125,125,124,122,124,124,124,124,0,1768593397.4155874
125,124,123,122,123,123,124,124,0,1768593397.4155896
125,125,124,122,122,124,124,124,0,1768593397.4155922
126,124,124,122,123,124,124,124,0,1768593397.4155948
126,125,124,123,123,124,124,124,0,1768593397.415597
126,125,124,125,123,125,124,124,0,1768593397.4155996
126,125,124,126,123,125,124,124,0,1768593397.4156032
126,124,124,126,124,124,124,124,0,1768593397.4156055
126,124,124,126,124,124,124,124,0,1768593397.4156077
125,124,123,125,124,123,124,124,0,1768593397.41561
125,124,123,124,124,122,124,124,0,1768593397.4156125
125,124,123,124,124,122,123,124,0,1768593397.4156144
125,123,123,124,124,123,123,124,0,1768593397.4156168
125,123,124,123,123,123,124,124,0,1768593397.4156194
125,123,124,123,123,123,124,124,0,1768593397.4357924
125,123,124,123,123,124,124,124,0,1768593397.4357963
125,123,124,123,123,124,124,124,0,1768593397.435799
125,124,124,123,123,124,124,124,0,1768593397.435801
125,124,124,123,123,124,124,124,0,1768593397.4358032
125,124,124,123,123,124,124,124,0,1768593397.4358058
125,124,124,123,123,124,124,124,0,1768593397.435808
125,124,124,122,123,124,124,124,0,1768593397.4358134
125,124,124,123,123,124,124,124,0,1768593397.4358156
125,124,123,123,123,124,124,124,0,1768593397.4358177
125,124,123,124,122,124,124,124,0,1768593397.43582
125,124,124,124,122,124,124,124,0,1768593397.435822
125,123,124,125,123,124,124,124,0,1768593397.4358244
125,123,124,125,123,124,124,124,0,1768593397.4358265
125,123,124,125,124,124,124,124,0,1768593397.4358284
126,124,124,124,124,124,124,124,0,1768593397.4358313
125,124,124,123,124,124,124,124,0,1768593397.4862587
125,124,124,122,123,124,124,124,0,1768593397.4862635
125,124,124,122,123,124,124,124,0,1768593397.4862664
125,124,124,123,123,123,124,124,0,1768593397.486269
125,124,124,123,123,123,124,124,0,1768593397.4862711
125,124,123,124,123,124,124,124,0,1768593397.4862735
125,125,124,124,124,124,124,124,0,1768593397.486276
126,125,124,124,124,124,124,124,0,1768593397.486278
126,125,124,124,124,124,124,125,0,1768593397.4862802
126,125,125,123,124,124,124,124,0,1768593397.4862823
125,124,124,123,124,124,124,124,0,1768593397.4862847
125,124,124,124,124,124,124,124,0,1768593397.4862869
125,124,124,124,124,124,124,124,0,1768593397.4862893
126,124,124,125,124,125,124,124,0,1768593397.4862912
126,124,124,125,124,125,124,124,0,1768593397.4862936
126,124,124,125,125,125,124,124,0,1768593397.4863024
125,124,124,125,124,124,124,124,0,1768593397.5064907
125,124,124,125,124,124,124,124,0,1768593397.5064945
125,124,124,124,123,123,123,124,0,1768593397.506497
125,124,124,124,123,124,123,124,0,1768593397.5064993
125,124,125,123,123,124,123,124,0,1768593397.5065017
125,124,124,123,123,123,123,124,0,1768593397.5065043
125,125,124,123,123,123,123,124,0,1768593397.5065062
125,125,124,123,123,123,123,124,0,1768593397.5065086
125,125,124,123,123,123,123,124,0,1768593397.5065112
125,124,124,122,123,123,124,124,0,1768593397.5065134
125,123,124,122,123,124,124,124,0,1768593397.5065205
125,123,124,122,122,124,124,124,0,1768593397.506523
126,123,124,123,123,125,124,124,0,1768593397.5065253
126,124,124,124,123,125,124,124,0,1768593397.5065274
126,124,124,125,124,125,124,124,0,1768593397.5065298
126,124,124,124,124,125,124,124,0,1768593397.5065324
126,123,124,124,124,124,124,124,0,1768593397.5267231
125,123,124,123,123,124,124,124,0,1768593397.5267262
125,123,123,122,123,124,124,124,0,1768593397.5267284
125,123,123,123,123,124,124,124,0,1768593397.5267308
125,124,123,123,123,124,123,124,0,1768593397.5267327
125,124,123,125,123,124,123,124,0,1768593397.5267353
125,124,123,125,123,124,123,124,0,1768593397.5267377
125,124,123,126,123,123,123,124,0,1768593397.5267396
125,123,124,126,123,124,124,124,0,1768593397.5267456
125,123,124,126,123,124,124,124,0,1768593397.526748
125,123,125,125,123,124,124,124,0,1768593397.5267503
125,123,125,124,123,124,124,124,0,1768593397.5267525
125,124,125,123,123,124,124,124,0,1768593397.5267546
125,124,124,123,123,123,124,124,0,1768593397.5267568
125,124,124,123,124,124,124,124,0,1768593397.5267591
125,125,125,123,124,124,124,124,0,1768593397.5267615
125,125,124,124,123,124,124,124,0,1768593397.5771425
125,126,124,124,124,125,124,124,0,1768593397.5771472
125,125,124,124,123,125,124,124,0,1768593397.5771499
125,125,124,124,123,125,124,124,0,1768593397.5771525
126,124,124,125,124,125,124,124,0,1768593397.577155
126,124,124,125,124,125,124,124,0,1768593397.5771573
125,124,124,125,124,125,124,124,0,1768593397.5771596
125,124,124,125,124,124,124,125,0,1768593397.577162
125,124,123,124,124,124,123,124,0,1768593397.5771642
125,124,123,124,123,123,123,124,0,1768593397.5771663
125,124,123,123,123,123,123,124,0,1768593397.5771687
125,124,123,123,123,123,123,124,0,1768593397.5771708
125,123,124,122,123,124,123,124,0,1768593397.577173
125,123,124,122,123,124,124,124,0,1768593397.5771754
126,123,124,122,123,125,124,124,0,1768593397.5771773
126,124,125,122,123,125,125,125,0,1768593397.5771804
125,125,125,122,123,125,125,125,0,1768593397.597363
126,126,124,123,124,125,125,125,0,1768593397.5973687
126,126,124,123,123,124,124,124,0,1768593397.597372
125,125,124,124,123,124,124,124,0,1768593397.5973752
125,125,124,124,123,124,124,124,0,1768593397.5973783
125,125,124,124,123,123,124,124,0,1768593397.5973868
125,124,124,124,123,123,124,124,0,1768593397.5973902
125,123,124,123,123,123,124,124,0,1768593397.5973976
125,123,124,123,123,123,124,124,0,1768593397.5974007
125,123,124,124,124,124,124,124,0,1768593397.5974147
125,122,124,126,124,124,124,124,0,1768593397.5974178
125,122,123,126,124,125,124,124,0,1768593397.5974252
125,123,124,126,125,125,124,124,0,1768593397.5974283
125,124,124,126,124,125,124,124,0,1768593397.5974474
125,124,125,126,124,124,124,124,0,1768593397.5974505
125,125,124,125,123,124,123,123,0,1768593397.597458
125,125,125,124,123,123,123,124,0,1768593397.6378222
125,125,124,124,123,124,124,124,0,1768593397.637827
125,125,123,124,123,124,124,124,0,1768593397.637829
125,124,124,124,123,123,123,124,0,1768593397.6378314
125,124,124,123,123,123,123,124,0,1768593397.6378338
125,124,124,123,123,124,124,124,0,1768593397.6378357
126,124,125,124,123,124,124,124,0,1768593397.6378381
126,124,125,124,123,124,124,124,0,1768593397.6378453
125,124,124,123,123,124,124,124,0,1768593397.637848
126,124,124,123,123,124,124,124,0,1768593397.6378498
125,123,124,122,123,124,124,124,0,1768593397.637862
125,123,124,122,123,124,124,124,0,1768593397.637864
125,123,124,122,123,124,124,124,0,1768593397.6378665
125,123,124,123,124,124,124,124,0,1768593397.6378734
125,122,123,123,124,124,123,124,0,1768593397.6378758
125,122,123,124,123,124,123,124,0,1768593397.6378784
125,123,123,124,123,124,124,124,0,1768593397.6681852
125,124,123,124,123,124,124,124,0,1768593397.6681902
125,124,123,123,123,123,124,124,0,1768593397.6681921
125,124,123,123,123,123,124,124,0,1768593397.668194
125,124,123,123,123,124,124,124,0,1768593397.6681957
125,123,123,123,123,124,123,124,0,1768593397.6681983
125,123,124,123,123,124,123,124,0,1768593397.6682003
125,123,124,124,123,125,124,124,0,1768593397.6682022
125,123,124,124,123,125,124,124,0,1768593397.668204
125,123,124,125,124,124,124,124,0,1768593397.6682055
125,124,124,125,123,124,124,124,0,1768593397.6682074
125,124,124,124,123,123,123,124,0,1768593397.668209
126,125,124,123,123,124,123,124,0,1768593397.668211
126,126,124,124,124,123,124,124,0,1768593397.6682127
125,126,124,124,123,124,124,124,0,1768593397.6682146
125,126,123,123,124,124,124,124,0,1768593397.668217
126,126,124,123,124,124,124,124,0,1768593397.708623
126,125,124,123,124,124,124,125,0,1768593397.7086272
126,124,124,123,124,124,124,125,0,1768593397.7086303
126,124,124,123,124,124,124,125,0,1768593397.7086332
126,123,124,123,124,124,124,124,0,1768593397.7086356
125,122,124,124,124,124,124,124,0,1768593397.7086382
125,123,124,123,124,124,124,124,0,1768593397.7086408
125,123,124,123,123,124,124,124,0,1768593397.708643
125,123,124,123,123,124,124,124,0,1768593397.7086456
125,124,124,123,123,123,124,124,0,1768593397.708648
125,124,124,123,123,123,124,124,0,1768593397.7086506
125,124,124,123,123,124,124,124,0,1768593397.708653
125,123,123,124,123,123,124,124,0,1768593397.7086554
125,124,123,125,123,123,124,124,0,1768593397.708658
125,124,123,125,123,123,124,124,0,1768593397.7086601
125,124,124,125,123,123,124,124,0,1768593397.7086632
125,124,124,126,123,123,124,124,0,1768593397.7288406
125,124,124,125,123,123,124,124,0,1768593397.7288456
125,124,124,125,123,123,124,124,0,1768593397.7288482
125,124,124,124,123,123,124,124,0,1768593397.7288513
125,125,124,123,123,124,124,124,0,1768593397.7288535
125,125,124,123,123,124,124,124,0,1768593397.7288613
125,125,124,123,123,124,124,124,0,1768593397.7288637
125,124,123,122,123,124,124,124,0,1768593397.7288802
125,124,123,122,123,124,124,124,0,1768593397.7288828
125,123,123,122,123,124,124,124,0,1768593397.7288852
125,123,123,122,123,124,124,124,0,1768593397.7288916
125,123,123,123,123,124,124,124,0,1768593397.728894
125,124,124,123,123,124,124,124,0,1768593397.7288966
125,124,124,124,123,125,124,124,0,1768593397.7289023
126,124,124,125,124,125,124,124,0,1768593397.7289045
125,124,124,125,124,125,124,124,0,1768593397.7289083
125,124,125,124,124,124,124,124,0,1768593397.7591999
125,123,125,125,124,124,124,124,0,1768593397.7592037
125,123,124,125,123,123,124,124,0,1768593397.7592056
125,124,124,124,123,123,123,124,0,1768593397.7592075
125,124,124,124,123,124,123,124,0,1768593397.7592092
125,124,123,124,124,124,124,124,0,1768593397.7592113
125,124,124,124,124,124,124,124,0,1768593397.759213
125,124,124,123,123,124,124,124,0,1768593397.7592149
125,124,125,123,123,124,124,124,0,1768593397.7592165
126,124,125,123,123,125,124,124,0,1768593397.7592185
126,125,125,123,123,125,124,124,0,1768593397.75922
126,124,125,124,123,125,124,124,0,1768593397.7592218
125,124,125,124,123,125,124,124,0,1768593397.7592232
125,124,124,123,123,124,124,124,0,1768593397.7592251
125,124,124,123,123,124,124,124,0,1768593397.7592268
125,125,124,122,123,124,124,124,0,1768593397.7592297
125,125,123,122,123,123,124,124,0,1768593397.7995825
125,125,124,123,123,124,124,124,0,1768593397.7995858
126,125,124,124,124,124,124,125,0,1768593397.7995884
126,124,124,124,124,124,124,125,0,1768593397.7995908
126,124,124,124,124,125,125,125,0,1768593397.7995934
126,124,124,124,124,125,125,125,0,1768593397.799596
126,124,124,123,123,124,124,124,0,1768593397.7996016
125,123,123,123,123,124,124,124,0,1768593397.7996044
125,123,124,123,123,123,124,124,0,1768593397.7996068
125,123,124,123,123,123,124,124,0,1768593397.7996094
125,123,124,124,123,123,124,124,0,1768593397.7996113
125,124,124,124,123,124,124,124,0,1768593397.799614
125,125,125,123,124,124,124,124,0,1768593397.7996163
125,125,124,123,124,124,124,124,0,1768593397.7996187
125,125,124,123,124,124,124,124,0,1768593397.7996213
125,124,124,123,123,124,124,124,0,1768593397.7996237
125,125,123,123,123,124,124,124,0,1768593397.8197775
125,124,123,123,123,124,123,124,0,1768593397.8197808
125,124,123,123,123,124,123,124,0,1768593397.8197837
125,124,123,123,123,124,123,124,0,1768593397.819786
125,124,124,124,123,124,123,124,0,1768593397.819793
125,123,124,124,123,124,123,124,0,1768593397.8197951
125,123,124,124,123,124,124,124,0,1768593397.8197975
125,123,124,124,124,123,124,124,0,1768593397.8198
125,124,124,123,123,124,124,124,0,1768593397.819802
125,124,123,123,123,124,123,124,0,1768593397.8198044
125,124,123,122,123,124,124,124,0,1768593397.8198068
126,125,124,122,123,124,124,124,0,1768593397.8198087
125,125,124,123,123,124,124,124,0,1768593397.819811
125,124,125,123,123,124,124,124,0,1768593397.8198135
125,124,125,123,123,123,124,124,0,1768593397.8198156
125,124,124,124,123,123,124,124,0,1768593397.819818
125,124,124,123,123,123,123,124,0,1768593397.8904283
125,124,124,124,123,123,123,124,0,1768593397.890433
125,124,123,125,124,123,123,124,0,1768593397.8904357
125,124,123,125,123,123,123,124,0,1768593397.8904378
125,123,123,125,123,124,123,124,0,1768593397.8904402
125,123,124,126,124,124,124,124,0,1768593397.8904467
125,124,124,126,124,125,124,124,0,1768593397.8904488
125,124,125,125,124,125,124,124,0,1768593397.8904514
125,124,125,125,124,125,124,124,0,1768593397.8904538
125,124,125,124,124,124,124,124,0,1768593397.890463
125,123,125,123,123,124,124,124,0,1768593397.8904657
125,123,124,123,123,124,124,124,0,1768593397.8904681
125,124,124,122,123,124,124,124,0,1768593397.89047
125,124,124,122,123,124,124,124,0,1768593397.8904724
125,124,124,123,123,124,123,124,0,1768593397.8904746
125,124,124,124,123,124,123,124,0,1768593397.8904767
125,124,124,124,124,124,124,124,0,1768593397.8904796
125,123,124,125,124,124,124,124,0,1768593397.890482
125,123,124,125,124,124,124,124,0,1768593397.8904839
126,124,124,126,124,125,124,124,0,1768593397.8904862
126,125,124,126,124,125,124,124,0,1768593397.8904884
126,125,124,126,123,124,124,124,0,1768593397.8904905
126,125,124,125,123,124,124,124,0,1768593397.890493
126,125,124,125,123,124,124,124,0,1768593397.8904953
126,125,124,124,123,124,124,124,0,1768593397.8904972
125,125,124,123,123,124,124,124,0,1768593397.8904996
125,125,124,122,123,124,124,124,0,1768593397.890502
125,125,124,122,123,124,124,124,0,1768593397.890504
125,125,124,123,123,124,124,124,0,1768593397.8905063
126,124,125,123,124,124,124,124,0,1768593397.8905087
126,124,125,124,124,124,124,124,0,1768593397.8905108
126,123,125,124,124,124,124,124,0,1768593397.8905134
126,123,124,124,124,124,124,124,0,1768593397.9308639
125,122,123,123,124,124,124,124,0,1768593397.9308681
125,122,123,123,123,124,124,124,0,1768593397.9308705
125,123,123,123,123,124,124,124,0,1768593397.9308732
125,124,124,122,123,124,124,124,0,1768593397.9308753
125,125,124,123,123,123,124,124,0,1768593397.9308774
125,125,124,123,123,123,124,124,0,1768593397.930881
125,125,124,123,123,123,124,124,0,1768593397.9308832
125,125,125,123,123,124,124,124,0,1768593397.930885
125,124,125,123,123,124,124,124,0,1768593397.9308875
125,125,125,122,123,125,124,124,0,1768593397.9308898
125,125,125,123,123,125,124,124,0,1768593397.9308918
125,124,125,124,123,125,124,124,0,1768593397.930894
125,124,124,123,123,124,124,124,0,1768593397.9309003
125,124,124,124,123,124,123,124,0,1768593397.9309025
125,124,124,125,123,124,123,124,0,1768593397.930905
125,124,124,125,123,123,123,124,0,1768593397.9510343
125,124,124,126,123,123,123,124,0,1768593397.9510384
125,124,124,127,123,124,123,124,0,1768593397.9510412
125,124,124,126,123,124,124,124,0,1768593397.9611068
125,123,124,126,123,124,124,124,0,1768593397.96111
125,123,124,125,123,124,124,124,0,1768593397.9611123
125,123,124,124,123,124,124,124,0,1768593397.961115
125,124,124,123,123,124,124,124,0,1768593397.961117
125,124,124,122,123,124,124,124,0,1768593397.9611192
125,124,124,122,123,124,124,124,0,1768593397.9611218
125,124,124,121,123,124,124,124,0,1768593397.9611242
125,124,124,122,123,124,123,124,0,1768593397.961126
125,123,124,122,123,124,123,124,0,1768593397.9611285
125,123,125,124,124,124,123,124,0,1768593397.9611304
125,124,125,124,124,124,124,124,0,1768593397.9611325
125,125,125,125,125,124,124,124,0,1768593397.9611356
125,125,124,125,124,124,124,124,0,1768593398.001531
125,125,124,125,124,124,124,124,0,1768593398.0015352
125,125,124,124,123,124,124,124,0,1768593398.001538
125,124,124,123,123,124,124,124,0,1768593398.0015404
125,123,124,123,122,124,123,124,0,1768593398.0015426
125,123,124,124,122,124,124,124,0,1768593398.0015447
125,123,124,125,123,125,124,125,0,1768593398.0015473
126,123,125,125,124,125,124,125,0,1768593398.0015492
126,123,124,126,124,125,124,125,0,1768593398.0015516
126,125,125,125,125,125,125,125,0,1768593398.001554
126,125,125,125,125,125,124,125,0,1768593398.0015562
126,125,124,124,125,124,124,125,0,1768593398.0015585
126,124,123,123,124,123,124,124,0,1768593398.001561
125,124,123,123,124,124,124,124,0,1768593398.0015662
125,124,123,123,123,124,124,124,0,1768593398.0015686
125,123,123,123,123,124,123,124,0,1768593398.0015712
125,123,123,124,122,124,124,124,0,1768593398.021749
125,123,123,124,123,124,124,124,0,1768593398.0217533
125,123,123,125,123,124,124,124,0,1768593398.021756
125,123,123,125,123,124,124,124,0,1768593398.0217583
126,124,124,124,123,124,124,124,0,1768593398.0217605
126,125,124,124,124,124,124,124,0,1768593398.0217628
126,125,124,125,123,124,124,125,0,1768593398.0217655
126,124,125,124,123,124,124,125,0,1768593398.0217721
125,124,125,124,123,123,124,125,0,1768593398.0217743
125,124,125,124,123,123,124,124,0,1768593398.0217807
125,124,125,124,123,123,123,124,0,1768593398.0217829
125,124,124,124,123,123,123,124,0,1768593398.021785
125,125,124,124,123,124,124,124,0,1768593398.0217874
125,125,124,124,123,124,124,124,0,1768593398.0217896
125,124,124,124,124,124,124,124,0,1768593398.0217915
125,124,124,124,124,124,124,124,0,1768593398.0217938
125,124,123,123,123,124,124,124,0,1768593398.0419502
125,124,123,123,123,124,124,124,0,1768593398.0419533
125,124,124,123,123,124,124,124,0,1768593398.0419552
125,124,124,122,123,124,124,124,0,1768593398.0419571
125,123,124,123,122,123,124,124,0,1768593398.0419586
125,123,124,124,123,123,124,124,0,1768593398.0419605
125,124,124,125,123,124,124,124,0,1768593398.041962
125,124,123,124,123,124,124,124,0,1768593398.0419636
125,123,123,124,123,124,124,124,0,1768593398.041965
125,123,123,123,123,124,124,124,0,1768593398.041967
125,124,124,122,123,124,124,124,0,1768593398.0419683
125,124,125,123,123,124,124,124,0,1768593398.04197
126,124,125,123,124,124,124,124,0,1768593398.0419717
125,124,125,124,124,124,124,124,0,1768593398.0419734
125,125,125,125,124,124,124,124,0,1768593398.0419748
125,124,123,125,124,123,123,124,0,1768593398.0419767
125,123,123,123,123,123,123,124,0,1768593398.0924494
125,123,123,123,123,124,123,124,0,1768593398.092455
125,123,123,123,123,124,123,124,0,1768593398.092458
125,123,123,123,123,124,124,124,0,1768593398.0924609
125,123,124,123,123,124,124,124,0,1768593398.0924637
125,123,123,124,123,124,124,124,0,1768593398.0924664
125,124,124,124,123,124,124,124,0,1768593398.0924695
126,125,125,124,123,124,124,124,0,1768593398.0924723
126,125,125,124,124,124,124,124,0,1768593398.0924752
126,125,125,125,124,124,124,125,0,1768593398.092478
126,125,126,124,124,124,124,125,0,1768593398.0924804
126,124,125,124,124,124,124,125,0,1768593398.0924833
126,123,124,125,124,124,124,125,0,1768593398.092486
126,123,124,125,123,124,124,124,0,1768593398.0924888
125,123,123,125,123,123,124,124,0,1768593398.0924916
125,123,123,125,123,123,124,124,0,1768593398.092499
125,123,123,125,124,123,124,124,0,1768593398.1127224
125,123,123,124,124,124,124,124,0,1768593398.1127267
125,123,123,124,124,124,124,124,0,1768593398.112729
125,124,123,123,123,124,124,124,0,1768593398.1127315
125,125,123,123,123,124,124,124,0,1768593398.1127336
125,125,123,123,123,124,124,124,0,1768593398.112736
125,125,124,123,123,123,124,124,0,1768593398.1127384
125,124,124,123,123,123,124,124,0,1768593398.112747
125,124,124,123,123,123,124,124,0,1768593398.1127493
125,123,124,123,123,124,124,124,0,1768593398.1127512
125,123,124,123,123,123,124,124,0,1768593398.1127534
125,123,124,122,124,124,124,124,0,1768593398.1127555
125,123,124,123,123,123,124,124,0,1768593398.1127586
125,123,124,124,124,123,124,124,0,1768593398.1127605
125,124,124,124,124,123,124,124,0,1768593398.1127627
125,124,124,124,123,123,124,124,0,1768593398.112765
126,124,124,125,123,123,124,124,0,1768593398.1633387
126,124,124,124,124,124,124,124,0,1768593398.1633434
125,124,123,123,123,124,124,124,0,1768593398.1633458
125,124,123,123,123,124,124,124,0,1768593398.1633487
125,124,123,124,123,124,124,124,0,1768593398.163351
125,125,123,124,123,124,124,124,0,1768593398.1633532
125,126,123,124,123,123,124,124,0,1768593398.1633556
125,126,124,123,123,123,124,124,0,1768593398.163358
126,126,124,124,123,124,124,124,0,1768593398.1633604
126,126,124,124,123,124,124,124,0,1768593398.1633687
126,125,124,123,123,124,124,124,0,1768593398.163371
125,124,124,123,123,124,124,124,0,1768593398.163373
125,123,124,123,123,124,124,124,0,1768593398.1633754
125,123,124,122,123,124,123,124,0,1768593398.1633775
125,123,124,122,123,124,124,124,0,1768593398.1633794
125,123,124,122,123,123,123,124,0,1768593398.1633945
125,123,124,122,123,123,123,124,0,1768593398.1835816
125,124,124,122,123,123,123,124,0,1768593398.1835861
125,124,123,123,124,124,124,124,0,1768593398.1835885
125,124,123,123,123,124,124,124,0,1768593398.1835914
125,124,123,124,123,124,124,124,0,1768593398.1835938
125,124,123,125,123,124,124,124,0,1768593398.1835961
125,124,124,125,123,124,124,124,0,1768593398.183598
125,124,124,125,123,123,124,124,0,1768593398.183601
125,124,124,125,123,123,124,124,0,1768593398.1836033
125,125,124,125,123,123,124,124,0,1768593398.1836052
126,125,124,124,123,124,124,124,0,1768593398.1836076
126,125,124,124,123,125,124,125,0,1768593398.18361
126,124,124,124,123,125,124,125,0,1768593398.183612
126,124,124,124,123,125,124,125,0,1768593398.1836143
126,124,125,124,124,125,125,124,0,1768593398.1836164
126,123,125,124,124,125,124,124,0,1768593398.1836233
126,124,124,123,124,124,124,124,0,1768593398.2037613
125,124,124,123,123,124,124,124,0,1768593398.2037642
125,124,124,124,124,124,124,124,0,1768593398.2037668
125,125,124,124,123,124,124,124,0,1768593398.2037692
125,125,124,124,123,123,124,124,0,1768593398.2037714
125,125,124,124,123,123,124,124,0,1768593398.2037737
125,125,124,124,123,123,123,124,0,1768593398.203776
125,125,125,123,123,123,123,124,0,1768593398.2037785
125,124,125,123,123,123,123,124,0,1768593398.2037807
126,124,125,123,123,124,124,124,0,1768593398.2037833
126,125,125,124,124,124,124,124,0,1768593398.2037852
126,124,124,125,124,125,124,124,0,1768593398.2037873
126,123,124,125,124,125,124,124,0,1768593398.203794
125,123,124,126,124,125,124,124,0,1768593398.2037961
125,123,123,126,124,124,124,124,0,1768593398.2037988
125,123,123,125,123,123,123,124,0,1768593398.2038014
125,123,123,124,123,123,123,124,0,1768593398.2743642
125,124,123,124,123,123,123,124,0,1768593398.2743688
125,125,124,123,122,124,123,124,0,1768593398.2743711
125,125,124,123,122,124,123,124,0,1768593398.2743735
125,125,124,123,123,124,124,124,0,1768593398.2743762
125,125,124,124,123,125,124,124,0,1768593398.2743788
125,125,124,124,124,125,124,124,0,1768593398.2743812
125,125,124,124,124,125,124,124,0,1768593398.2743835
126,125,124,124,124,124,124,124,0,1768593398.274386
125,124,124,124,123,124,124,124,0,1768593398.2743883
125,123,124,123,123,124,123,124,0,1768593398.2743902
125,123,124,123,123,124,123,124,0,1768593398.2743928
125,123,124,123,123,124,123,124,0,1768593398.274395
125,123,124,124,124,124,123,124,0,1768593398.2743971
125,123,124,125,124,124,123,124,0,1768593398.2743995
125,123,124,125,124,124,123,124,0,1768593398.274406
125,123,124,126,124,123,123,124,0,1768593398.274408
125,123,124,126,123,123,123,124,0,1768593398.2744107
125,124,124,126,123,123,123,124,0,1768593398.274413
125,124,124,125,123,123,123,124,0,1768593398.2744184
125,124,124,125,123,123,123,124,0,1768593398.2744207
125,124,124,125,123,124,124,124,0,1768593398.2744231
125,124,124,125,123,124,124,124,0,1768593398.274425
125,124,123,125,123,125,124,124,0,1768593398.2744274
125,124,123,124,123,124,124,124,0,1768593398.27443
125,124,123,124,123,124,124,124,0,1768593398.2744322
125,124,123,123,123,124,124,124,0,1768593398.2744348
125,124,123,123,123,124,124,124,0,1768593398.2744372
126,125,124,122,124,124,124,124,0,1768593398.274439
126,125,124,123,124,124,124,125,0,1768593398.2744415
126,125,124,123,125,124,124,125,0,1768593398.2744439
126,125,125,123,124,124,124,124,0,1768593398.274457
126,125,125,124,124,124,124,124,0,1768593398.335068
126,124,124,124,124,124,124,124,0,1768593398.335073
125,123,124,124,123,124,124,124,0,1768593398.3350763
125,122,124,124,123,124,124,124,0,1768593398.3350794
125,122,124,123,123,124,124,124,0,1768593398.3350995
125,122,123,123,123,124,124,124,0,1768593398.3351164
125,123,124,123,123,124,124,124,0,1768593398.335123
125,124,124,122,123,125,124,124,0,1768593398.3351285
126,125,125,122,123,125,125,124,0,1768593398.3351338
126,126,125,123,123,125,125,125,0,1768593398.3351383
126,126,125,123,123,125,125,125,0,1768593398.3351429
126,124,125,124,123,124,124,124,0,1768593398.3351476
126,123,124,125,124,124,124,124,0,1768593398.3351521
125,123,124,125,123,123,124,124,0,1768593398.3351567
125,123,123,124,124,123,124,124,0,1768593398.3351614
125,124,124,124,123,124,124,124,0,1768593398.3351781
125,124,123,124,123,124,124,124,0,1768593398.3453891
125,125,124,124,123,124,124,124,0,1768593398.3454037
125,125,124,124,123,124,124,124,0,1768593398.3454175
125,125,125,124,123,124,124,124,0,1768593398.3454225
125,125,125,125,123,124,124,124,0,1768593398.3454273
125,125,125,125,123,124,124,124,0,1768593398.345432
125,125,124,124,123,124,123,124,0,1768593398.3454366
125,124,124,123,123,123,123,124,0,1768593398.345441
125,124,123,123,124,123,123,124,0,1768593398.3454454
125,124,123,123,124,123,123,124,0,1768593398.3454497
125,124,123,122,124,123,123,124,0,1768593398.3454545
125,124,124,122,124,124,124,124,0,1768593398.3454587
125,124,124,122,124,124,124,124,0,1768593398.345463
125,124,124,123,124,125,124,124,0,1768593398.3454673
126,124,125,124,124,125,124,124,0,1768593398.3454719
126,124,125,125,124,125,124,124,0,1768593398.3454826
125,124,124,126,124,124,124,124,0,1768593398.365951
125,124,124,126,124,124,124,124,0,1768593398.3659587
125,124,124,125,124,123,124,124,0,1768593398.3659637
125,124,123,124,123,123,124,124,0,1768593398.3659687
125,124,123,124,123,123,124,124,0,1768593398.3659732
125,124,123,124,122,123,123,124,0,1768593398.3659775
125,123,124,124,122,123,123,124,0,1768593398.365982
125,124,124,123,122,123,123,124,0,1768593398.3659992
125,125,125,123,123,124,124,124,0,1768593398.3660042
126,125,125,123,123,124,124,124,0,1768593398.3660088
125,125,125,122,124,124,124,124,0,1768593398.3660135
126,126,125,123,124,124,124,124,0,1768593398.366018
125,125,125,123,124,124,124,125,0,1768593398.3660223
125,125,124,124,124,124,124,125,0,1768593398.366027
125,124,124,124,124,124,124,124,0,1768593398.3660312
126,124,124,124,124,125,124,124,0,1768593398.3660421
126,124,124,124,124,125,124,125,0,1768593398.4066808
126,124,124,124,124,125,124,125,0,1768593398.4066877
126,124,124,124,124,124,124,124,0,1768593398.406693
126,124,124,125,124,124,124,124,0,1768593398.4066975
126,125,124,126,124,124,124,125,0,1768593398.4067018
126,125,123,126,123,124,124,124,0,1768593398.4067063
126,125,123,126,123,125,124,124,0,1768593398.4067109
125,125,123,124,123,125,124,124,0,1768593398.4067152
125,124,123,123,123,125,124,124,0,1768593398.4067197
125,123,123,122,122,124,123,124,0,1768593398.4067242
125,123,123,123,123,124,123,124,0,1768593398.4067285
125,123,124,123,123,124,123,124,0,1768593398.4067328
125,123,124,124,123,124,124,124,0,1768593398.406737
125,123,125,125,123,123,124,124,0,1768593398.4067411
125,123,125,126,124,124,124,124,0,1768593398.4067457
125,124,124,126,124,124,124,124,0,1768593398.4067628
125,124,124,125,123,124,124,124,0,1768593398.4269023
125,124,124,125,123,124,124,124,0,1768593398.4269083
125,124,123,124,124,124,124,124,0,1768593398.426911
125,123,123,123,124,124,124,124,0,1768593398.4269142
125,123,124,123,124,124,124,124,0,1768593398.4269168
125,124,124,124,124,124,124,124,0,1768593398.4269257
125,124,124,124,123,124,123,124,0,1768593398.4269288
125,125,124,123,122,124,124,124,0,1768593398.4269314
125,125,123,123,122,124,124,124,0,1768593398.4269342
125,124,124,123,122,124,124,124,0,1768593398.426937
125,124,124,122,122,124,124,124,0,1768593398.4269397
126,124,124,122,123,124,124,125,0,1768593398.4269423
126,124,124,123,123,124,124,125,0,1768593398.4269452
126,125,125,123,124,125,124,125,0,1768593398.4269478
126,125,124,123,124,125,124,125,0,1768593398.4269507
125,124,124,123,123,124,124,124,0,1768593398.4269543
125,124,123,123,124,124,124,124,0,1768593398.477327
125,124,124,123,124,124,123,124,0,1768593398.4773326
125,124,124,123,123,124,123,124,0,1768593398.4773355
125,124,124,123,123,124,123,124,0,1768593398.4773383
125,124,124,124,123,124,123,124,0,1768593398.4773407
125,124,124,124,123,124,123,124,0,1768593398.4773433
126,125,124,123,123,124,124,124,0,1768593398.4773455
126,125,124,124,123,124,124,124,0,1768593398.4773479
126,124,124,123,123,124,124,124,0,1768593398.477356
125,124,124,123,123,124,124,124,0,1768593398.4773583
125,123,124,122,123,123,124,124,0,1768593398.4773607
125,123,123,122,123,123,123,124,0,1768593398.4773629
125,122,123,122,123,123,123,124,0,1768593398.4773653
125,123,124,122,123,123,123,124,0,1768593398.4773676
125,123,124,123,123,123,123,124,0,1768593398.4773698
126,124,124,124,124,124,124,124,0,1768593398.4773753
126,125,125,125,124,125,124,124,0,1768593398.4975584
126,126,125,126,125,125,124,125,0,1768593398.497573
126,127,125,127,125,126,125,125,0,1768593398.4975758
126,127,125,127,125,126,124,125,0,1768593398.4975781
126,126,125,126,124,125,124,125,0,1768593398.4975805
126,125,124,126,123,124,124,125,0,1768593398.4975832
125,124,124,125,123,124,124,124,0,1768593398.4975853
125,123,124,125,123,123,123,124,0,1768593398.4975877
125,122,123,125,124,123,123,124,0,1768593398.49759
125,123,123,125,124,123,123,124,0,1768593398.4975963
125,123,123,126,124,123,123,124,0,1768593398.4975986
125,123,123,126,124,124,124,124,0,1768593398.497601
126,123,124,125,124,124,124,124,0,1768593398.4976034
126,124,124,123,124,124,124,124,0,1768593398.4976065
125,125,124,123,123,124,124,124,0,1768593398.49761
125,124,124,122,123,125,124,124,0,1768593398.49762
125,124,124,121,123,124,124,124,0,1768593398.5379443
125,124,124,121,123,124,124,123,0,1768593398.53795
125,123,124,122,123,124,124,123,0,1768593398.5379534
125,122,124,123,123,124,124,124,0,1768593398.5379562
125,122,124,124,123,123,124,124,0,1768593398.5379593
125,123,124,124,123,123,124,124,0,1768593398.5379624
125,124,123,124,123,123,124,124,0,1768593398.5379663
125,124,124,124,124,123,124,124,0,1768593398.5379705
125,125,124,124,124,124,124,124,0,1768593398.537979
125,125,124,123,124,124,125,124,0,1768593398.5379815
125,124,124,123,124,125,125,124,0,1768593398.537984
126,125,124,123,123,125,125,124,0,1768593398.5379863
125,125,124,123,123,125,124,124,0,1768593398.537989
125,125,124,124,122,124,124,124,0,1768593398.5379915
125,126,123,124,122,124,124,123,0,1768593398.5379944
125,125,123,124,123,123,124,123,0,1768593398.5379987
125,125,123,125,123,123,124,123,0,1768593398.5883842
125,124,123,124,123,123,124,124,0,1768593398.588389
125,123,123,124,123,123,123,124,0,1768593398.5883915
125,123,124,123,123,124,123,124,0,1768593398.5883937
125,123,124,123,123,124,123,124,0,1768593398.5883958
125,123,124,123,122,124,123,124,0,1768593398.5883982
125,124,124,122,122,124,123,124,0,1768593398.5884004
125,124,124,123,122,124,124,124,0,1768593398.5884027
125,124,123,123,123,123,124,124,0,1768593398.5884047
125,124,124,124,123,123,124,124,0,1768593398.5884068
125,124,123,125,124,123,124,124,0,1768593398.588409
125,123,123,126,124,124,124,124,0,1768593398.588411
125,123,123,125,124,124,123,124,0,1768593398.5884173
125,123,123,124,124,124,123,124,0,1768593398.5884197
125,123,123,124,124,124,124,124,0,1768593398.5884218
125,124,123,124,124,124,124,124,0,1768593398.588424
125,124,124,124,124,124,124,124,0,1768593398.5884264
126,125,125,125,124,125,124,124,0,1768593398.5884283
126,125,125,125,124,125,125,124,0,1768593398.5884306
126,125,125,125,124,125,124,125,0,1768593398.5884326
126,125,126,125,124,125,125,125,0,1768593398.5884347
126,124,125,124,124,124,125,125,0,1768593398.5884373
126,124,125,124,124,124,124,125,0,1768593398.5884392
125,125,124,123,124,124,124,124,0,1768593398.5884416
125,125,124,123,124,125,124,124,0,1768593398.5884438
125,125,124,123,124,125,124,124,0,1768593398.588446
125,125,124,123,124,125,124,124,0,1768593398.588448
125,124,124,123,124,125,124,124,0,1768593398.5884502
125,124,124,123,124,125,124,124,0,1768593398.5884528
125,123,124,123,123,124,124,124,0,1768593398.588455
125,123,125,124,123,123,124,124,0,1768593398.5884569
125,124,125,124,123,123,124,124,0,1768593398.5884597
125,124,124,125,123,123,124,124,0,1768593398.628784
125,123,124,124,123,124,124,124,0,1768593398.6287897
125,123,123,123,122,124,124,124,0,1768593398.6287928
125,124,123,122,122,124,124,124,0,1768593398.6287959
125,124,123,122,123,124,124,124,0,1768593398.6287987
125,124,123,122,123,124,124,125,0,1768593398.6288013
126,124,123,122,124,124,124,125,0,1768593398.6288042
125,124,124,123,124,124,124,125,0,1768593398.6288126
126,124,124,123,124,124,124,125,0,1768593398.6288154
125,124,124,124,124,124,124,124,0,1768593398.6288183
125,124,124,124,123,124,124,124,0,1768593398.628821
125,124,124,124,123,124,124,124,0,1768593398.6288238
125,125,124,124,123,124,124,124,0,1768593398.6288278
125,125,124,124,124,124,123,124,0,1768593398.6288307
125,125,124,124,124,124,123,124,0,1768593398.6288335
125,126,124,123,123,123,123,124,0,1768593398.6288416
125,126,124,123,123,123,123,124,0,1768593398.6591046
125,125,124,123,123,123,123,124,0,1768593398.6591094
125,125,124,124,122,123,124,124,0,1768593398.6591122
125,124,124,125,122,124,124,124,0,1768593398.6591148
125,124,123,125,123,124,124,124,0,1768593398.659117
125,123,123,125,123,124,124,124,0,1768593398.6591196
125,123,123,125,123,124,124,124,0,1768593398.659122
125,122,123,123,123,124,124,124,0,1768593398.6591249
125,122,123,122,123,124,124,124,0,1768593398.6591268
125,122,123,122,123,124,124,124,0,1768593398.6591291
125,124,124,122,123,124,124,124,0,1768593398.6591313
126,124,124,123,124,125,124,124,0,1768593398.6591337
126,125,124,124,124,124,124,124,0,1768593398.6591358
126,125,124,125,125,124,124,124,0,1768593398.659138
125,124,125,125,125,124,124,124,0,1768593398.6591403
125,124,125,124,124,123,124,124,0,1768593398.6591532
125,123,124,123,124,123,124,123,0,1768593398.6995287
125,123,124,123,123,123,124,124,0,1768593398.6995325
125,123,124,123,123,123,124,124,0,1768593398.699535
125,124,124,124,123,124,124,124,0,1768593398.699537
126,124,124,125,123,124,124,124,0,1768593398.6995394
126,124,124,126,124,124,124,124,0,1768593398.6995416
126,125,124,124,124,125,125,125,0,1768593398.6995435
126,125,125,123,124,125,125,125,0,1768593398.6995459
126,124,125,123,124,125,124,125,0,1768593398.699548
126,124,125,121,123,125,124,125,0,1768593398.69955
125,124,125,121,123,125,124,124,0,1768593398.699552
125,124,124,122,123,124,124,124,0,1768593398.699554
125,124,124,123,122,124,123,124,0,1768593398.699556
125,124,124,124,123,123,124,124,0,1768593398.6995614
125,124,124,124,123,123,124,124,0,1768593398.6995637
125,125,124,124,124,124,124,124,0,1768593398.6995666
125,125,124,124,124,124,124,124,0,1768593398.7197561
125,124,123,123,123,124,124,124,0,1768593398.7197616
125,124,123,124,123,124,124,124,0,1768593398.719765
125,124,124,125,123,124,124,124,0,1768593398.7197678
125,123,124,125,123,123,124,124,0,1768593398.7197707
125,123,124,125,123,123,124,124,0,1768593398.7197735
125,123,124,125,123,123,124,124,0,1768593398.7197762
125,123,124,124,123,123,124,124,0,1768593398.7197788
125,123,123,123,123,123,124,124,0,1768593398.7197816
125,123,123,123,123,124,124,124,0,1768593398.7197845
125,123,123,123,123,123,124,124,0,1768593398.7197871
125,123,123,122,123,123,124,124,0,1768593398.7197897
126,124,123,123,123,124,124,124,0,1768593398.7197926
126,124,123,124,124,124,124,124,0,1768593398.7197955
126,124,124,124,124,125,124,124,0,1768593398.719803
126,124,124,124,124,125,124,124,0,1768593398.7198062
126,124,124,125,123,125,124,124,0,1768593398.7701852
125,124,124,124,123,124,124,124,0,1768593398.7701936
125,123,123,123,123,123,124,124,0,1768593398.7702198
125,123,123,123,122,123,124,124,0,1768593398.7702224
125,123,123,123,123,123,124,124,0,1768593398.7702248
125,124,123,123,123,124,124,124,0,1768593398.7702272
125,124,123,124,123,124,124,124,0,1768593398.7702296
125,124,124,124,123,125,124,124,0,1768593398.770232
125,124,124,124,123,125,124,124,0,1768593398.7702343
125,125,125,123,123,125,124,124,0,1768593398.7702367
125,124,125,123,123,125,124,124,0,1768593398.7702389
125,124,124,122,123,124,124,124,0,1768593398.770241
125,123,124,122,123,123,123,124,0,1768593398.7702522
125,123,124,122,124,123,123,124,0,1768593398.7702546
125,123,124,122,124,123,123,124,0,1768593398.770257
125,123,124,123,124,123,123,124,0,1768593398.770264
125,124,124,123,124,123,123,124,0,1768593398.790468
125,124,124,123,123,123,124,124,0,1768593398.7904723
125,124,124,124,123,124,124,124,0,1768593398.7904744
125,124,124,125,124,124,124,124,0,1768593398.790477
125,124,124,124,123,124,124,124,0,1768593398.7904794
125,125,125,125,123,124,124,124,0,1768593398.7904816
125,124,125,126,124,125,124,124,0,1768593398.7904842
125,124,125,126,123,125,124,124,0,1768593398.7904863
125,124,124,125,123,125,124,124,0,1768593398.7904944
125,124,125,124,123,124,124,124,0,1768593398.7904968
126,124,124,124,123,124,124,124,0,1768593398.7904987
125,123,123,123,123,123,124,124,0,1768593398.7905042
125,123,123,123,123,123,123,124,0,1768593398.7905068
125,124,123,124,123,123,123,124,0,1768593398.7905087
125,125,123,125,124,124,124,124,0,1768593398.7905111
125,125,123,125,124,124,124,124,0,1768593398.7905192
126,125,124,126,124,124,124,124,0,1768593398.8107016
126,125,124,126,124,124,124,124,0,1768593398.8107047
126,125,124,125,124,123,124,124,0,1768593398.8107069
125,124,124,125,124,123,124,124,0,1768593398.8107095
125,123,124,125,123,123,124,124,0,1768593398.8107119
125,123,124,124,123,123,124,124,0,1768593398.810714
125,124,124,123,123,123,124,124,0,1768593398.8107164
125,124,125,122,122,123,124,124,0,1768593398.8107188
125,124,125,122,122,124,124,123,0,1768593398.810721
126,125,125,122,122,124,124,124,0,1768593398.8107233
126,125,125,123,123,124,124,124,0,1768593398.8107257
125,124,124,124,123,125,124,124,0,1768593398.8107285
125,124,124,124,123,124,124,124,0,1768593398.810731
125,125,124,125,124,124,124,124,0,1768593398.8107333
125,124,123,124,124,124,124,124,0,1768593398.8107355
125,124,123,123,124,124,123,124,0,1768593398.8107378
125,124,123,124,124,124,123,124,0,1768593398.8610647
125,125,124,124,124,124,123,124,0,1768593398.861074
125,125,124,124,124,124,123,124,0,1768593398.8610768
125,124,124,124,123,124,123,124,0,1768593398.8610787
125,125,124,124,123,124,124,124,0,1768593398.8610811
125,125,124,123,124,124,124,124,0,1768593398.8610835
125,124,124,123,123,125,124,124,0,1768593398.8610857
125,124,124,122,123,124,124,124,0,1768593398.8610876
125,125,124,123,123,124,124,124,0,1768593398.8610895
125,124,125,123,122,123,124,124,0,1768593398.8610916
125,124,124,123,122,123,123,124,0,1768593398.8610935
125,124,124,123,122,123,123,124,0,1768593398.8610957
125,124,124,123,122,124,123,124,0,1768593398.8610978
125,124,124,123,123,124,123,124,0,1768593398.8611004
125,124,124,123,123,124,124,124,0,1768593398.8611028
126,124,124,124,124,124,124,124,0,1768593398.8611054
125,124,124,124,124,124,124,124,0,1768593398.8812876
125,123,124,124,124,124,124,124,0,1768593398.8812926
125,123,125,125,124,124,124,124,0,1768593398.881296
125,123,125,124,124,124,124,124,0,1768593398.881299
125,122,125,124,124,124,123,124,0,1768593398.881302
125,122,124,124,123,124,124,124,0,1768593398.8813055
125,123,124,124,123,124,124,124,0,1768593398.8813086
